,rest_wave,flux
0,98.8988,6.9488143124835156e-12
1,102.1592,-7.962746171567158e-15
2,104.33279999999999,-1.322724407996924e-16
3,106.5064,5.274331806050033e-16
4,108.67999999999999,7.393817284990626e-17
5,110.8536,-5.812531679908517e-16
6,113.0272,-1.8591823541402122e-16
7,115.2008,4.126884976047328e-16
8,117.3744,-3.565137200183686e-16
9,119.548,1.38700348714349e-16
10,123.8952,-1.3630761711704646e-16
11,128.2424,-3.0396390349630297e-16
12,131.5028,1.5945282938568107e-16
13,135.85,-2.242026221045796e-16
14,138.0236,1.069644919481049e-16
15,139.1104,-1.9630570149247027e-16
16,142.3708,-2.0890158244218282e-17
17,143.45759999999999,-2.1992487541100012e-16
18,145.6312,1.7100397944877707e-16
19,148.8916,-1.831094040052699e-16
20,152.152,7.393793658995029e-17
21,155.4124,1.4422115264681445e-16
22,159.7596,4.0021594860498e-17
23,164.1068,1.1687385583757022e-16
24,168.454,4.3677426869305087e-17
25,172.8012,-4.480612577283795e-17
26,176.0616,4.743014570615021e-17
27,180.40879999999999,1.9075281287541243e-16
28,184.756,1.9512220811516808e-16
29,188.0164,7.656346087386505e-17
30,192.3636,1.0435971806817922e-16
31,195.624,6.394295769423675e-17
32,197.7976,1.298447221039225e-16
33,202.1448,-1.8558276425640432e-16
34,207.5788,-3.6237248488720714e-17
35,210.8392,1.0685561004544428e-16
36,215.1864,1.1480994591582535e-16
37,219.5336,2.7517250954330942e-17
38,222.794,1.0402219955535399e-16
39,228.228,3.2484052161321476e-17
40,234.7488,-1.7355861644624636e-16
41,239.096,1.600886642987028e-16
42,242.3564,1.6987362356948602e-16
43,246.7036,1.72356683358099e-16
44,249.964,3.3404369644768743e-16
45,254.31119999999999,5.544434584498777e-16
46,260.832,9.338300599842208e-16
47,267.3528,1.8584649568570556e-15
48,273.8736,3.724793586913868e-15
49,279.3076,4.072427354883038e-15
50,282.568,6.0456201562236224e-15
51,286.91519999999997,8.559868917818289e-15
52,292.3492,1.1115402126893733e-14
53,297.7832,1.482633173360649e-14
54,303.2172,1.7990333442105237e-14
55,308.6512,2.3783335167999333e-14
56,315.17199999999997,3.050755094314341e-14
57,321.6928,3.531785488809346e-14
58,327.1268,4.2697396623501535e-14
59,334.7344,4.6867165678206e-14
60,345.6024,7.76059645624457e-14
61,356.4704,1.0261399656480635e-13
62,367.3384,1.138826986124256e-13
63,378.2064,1.4062814828121256e-13
64,387.9876,1.61506505379253e-13
65,397.7688,1.9646403597291146e-13
66,407.55,2.1494759989448397e-13
67,418.418,2.2499120741670677e-13
68,429.286,2.7116025265475097e-13
69,440.154,2.9804743726338607e-13
70,449.9352,3.1516002440914147e-13
71,458.6296,3.290583765232486e-13
72,467.324,3.494596753598251e-13
73,479.2788,3.573538818323589e-13
74,490.1468,3.9388939919386555e-13
75,499.928,4.043832456282105e-13
76,510.796,4.269841942989965e-13
77,521.664,4.346359610516235e-13
78,532.532,4.480550872875254e-13
79,543.4,4.67173757933431e-13
80,549.9208,4.70528434514985e-13
81,556.4416,4.66195659950078e-13
82,565.136,4.995976332061289e-13
83,576.004,5.041244101778846e-13
84,586.872,4.842148977512351e-13
85,597.74,4.793531026950445e-13
86,608.608,5.302377082715967e-13
87,619.476,5.334025886769152e-13
88,630.3439999999999,5.35078151026182e-13
89,641.212,5.494230297275269e-13
90,652.08,5.41635300402558e-13
91,662.948,5.573564313048046e-13
92,673.816,5.616554058022761e-13
93,684.684,5.63007281124225e-13
94,695.552,5.589908802060502e-13
95,706.42,5.709488127854419e-13
96,715.1144,5.704268101182524e-13
97,722.722,5.708846148218139e-13
98,733.59,5.835746004710311e-13
99,744.458,5.930347720824564e-13
100,755.326,5.908616693749305e-13
101,766.194,6.002195962418819e-13
102,778.1487999999999,6.113509262378737e-13
103,789.0168,6.163508593221363e-13
104,798.798,6.226019028073742e-13
105,809.6659999999999,6.29700854885175e-13
106,820.534,6.309942795504689e-13
107,831.402,6.004211103811953e-13
108,842.27,6.631856665703649e-13
109,853.138,6.401343411100122e-13
110,864.006,6.976813905296934e-13
111,874.874,7.158383957238774e-13
112,885.742,7.275971527192207e-13
113,896.61,7.512890792701143e-13
114,907.478,7.607333565720294e-13
115,918.346,7.959542810874373e-13
116,929.2139999999999,8.128685425401336e-13
117,940.082,8.598078326347589e-13
118,950.95,9.48528190896363e-13
119,961.818,1.1469583725958075e-12
120,972.686,1.5363173211878632e-12
121,983.554,3.0011991002151375e-11
122,994.422,7.555120760311654e-10
123,1005.29,6.737665248098445e-10
124,1016.158,8.676481106306539e-10
125,1027.026,7.929514607327777e-10
126,1037.894,8.550445824753787e-10
127,1048.762,8.744705015852283e-10
128,1059.6299999999999,5.748597618353836e-10
129,1070.498,6.545975701584278e-10
130,1081.366,9.442271414478343e-10
131,1092.234,9.81603381757828e-10
132,1103.102,9.224781286843159e-10
133,1113.97,7.403797642727385e-10
134,1124.838,8.360861622561395e-10
135,1135.706,1.1364574352909205e-09
136,1146.574,1.1783032278646517e-09
137,1157.442,1.1092373126995188e-09
138,1168.31,1.0878652244190448e-09
139,1179.1779999999999,1.0458590639981902e-09
140,1190.046,1.1968285280092874e-09
141,1200.914,1.2022451821160338e-09
142,1211.782,1.11829192419279e-09
143,1222.65,9.44681240066693e-10
144,1233.518,1.2540876520167871e-09
145,1244.386,1.2189488897334008e-09
146,1255.254,1.0393327125120469e-09
147,1266.122,1.137652908308194e-09
148,1276.99,1.3128107485611358e-09
149,1287.858,1.922862728925872e-09
150,1298.7259999999999,2.400891831821322e-09
151,1309.594,2.9283166198608475e-09
152,1320.462,3.099772128616907e-09
153,1331.33,3.0267314888359887e-09
154,1342.198,2.5005722094881095e-09
155,1353.066,2.1095714088546424e-09
156,1363.934,1.5843211111922968e-09
157,1374.802,1.3405169554715807e-09
158,1385.67,1.4076753095318778e-09
159,1396.538,1.3527413296918175e-09
160,1407.406,1.308415480304385e-09
161,1418.274,1.3505263166607166e-09
162,1429.142,1.4274351653263298e-09
163,1440.01,1.4378109683859105e-09
164,1450.878,1.4414717550998724e-09
165,1461.746,1.4428414343413984e-09
166,1472.614,1.5265284269594004e-09
167,1483.482,1.4726955592089336e-09
168,1494.35,1.5340537238209231e-09
169,1505.218,1.5219731018359022e-09
170,1516.086,1.5671406179096715e-09
171,1526.954,1.6341997188065961e-09
172,1537.822,1.516629284612111e-09
173,1548.69,1.5038313839031532e-09
174,1559.558,1.5390512369463376e-09
175,1567.1656,1.6104626257671977e-09
176,1572.5996,1.6372810889965683e-09
177,1581.294,1.6365206617457499e-09
178,1592.162,1.57409049456333e-09
179,1603.03,1.58140612390174e-09
180,1613.898,1.5728500057379488e-09
181,1624.766,1.6384424035797578e-09
182,1635.634,1.6232094452637638e-09
183,1643.2416,1.5528473811521993e-09
184,1648.6756,1.5881449130723637e-09
185,1657.37,1.5033570433699093e-09
186,1668.238,1.4883263335302101e-09
187,1679.106,1.4044383985833067e-09
188,1689.974,1.5863106044421537e-09
189,1700.8419999999999,1.4091574563843005e-09
190,1711.71,1.6102320482828855e-09
191,1722.578,1.5567681202895946e-09
192,1733.446,1.7185606036259453e-09
193,1744.314,1.6981164878331131e-09
194,1755.182,1.6944213992081314e-09
195,1766.05,1.64587247084484e-09
196,1776.918,1.6988564146418733e-09
197,1787.786,1.7307727462064383e-09
198,1798.654,1.6166732477869934e-09
199,1809.522,1.73917672042144e-09
200,1817.1296,1.6211052265132512e-09
201,1822.5636,1.7509460832916504e-09
202,1831.258,1.822553330063135e-09
203,1842.126,1.759981108224187e-09
204,1852.994,1.7386002324921e-09
205,1863.862,1.743221959611672e-09
206,1874.73,1.745580609404005e-09
207,1885.598,1.8070813032643088e-09
208,1896.466,1.7939078041633628e-09
209,1907.334,1.858473653016861e-09
210,1918.202,1.7434608514392733e-09
211,1929.07,1.830886193764739e-09
212,1939.9379999999999,1.8511380960793582e-09
213,1950.806,1.9338993306366766e-09
214,1961.674,1.9141285555447122e-09
215,1972.542,1.8874094285290627e-09
216,1983.41,1.869041690889837e-09
217,1994.278,1.8411280398185314e-09
218,2005.146,1.7634727752745474e-09
219,2016.014,1.79675635571109e-09
220,2026.882,1.837208014550042e-09
221,2037.75,1.888811233231026e-09
222,2048.618,1.870371225097672e-09
223,2059.486,1.8695457471717486e-09
224,2070.354,1.879271480131098e-09
225,2081.2219999999998,1.894163124884368e-09
226,2092.09,1.889994690386661e-09
227,2102.958,1.8591337097195212e-09
228,2113.826,1.9441690748436757e-09
229,2124.694,1.9253161861466766e-09
230,2137.7356,1.9924457996683696e-09
231,2147.5168,1.992794393410851e-09
232,2156.2112,1.961861559197802e-09
233,2168.166,1.9316282862482805e-09
234,2179.034,1.9276161556761965e-09
235,2189.902,1.910630470170504e-09
236,2200.77,1.9166416009230556e-09
237,2211.638,1.942583448739631e-09
238,2222.506,1.9907218856135715e-09
239,2233.374,1.9659800810574733e-09
240,2244.242,1.9700405318198234e-09
241,2254.0232,2.044084073187772e-09
242,2258.3704,2.048483058396874e-09
243,2265.978,2.0566643498246525e-09
244,2276.846,2.0099993985625765e-09
245,2287.714,1.998090262292504e-09
246,2298.582,2.015187963718915e-09
247,2309.45,2.02936988524985e-09
248,2320.3179999999998,1.921566207037788e-09
249,2331.186,2.0095107411918874e-09
250,2342.054,2.027038546207824e-09
251,2352.922,1.9795632398767953e-09
252,2363.79,1.9703007038117537e-09
253,2374.658,1.99703682766467e-09
254,2385.526,2.0633430172321567e-09
255,2396.394,2.0268755433061192e-09
256,2407.262,1.9529052333414797e-09
257,2418.13,1.9490893808304088e-09
258,2428.998,2.0675906741828495e-09
259,2439.866,1.984546975735155e-09
260,2450.734,1.942872814390202e-09
261,2461.602,1.9500304828073482e-09
262,2472.47,2.018944769388038e-09
263,2483.338,2.0793432365474403e-09
264,2494.206,2.030888958939397e-09
265,2505.074,2.063245372230846e-09
266,2515.942,2.041970509009136e-09
267,2526.81,1.862423406899596e-09
268,2537.678,1.9779020332499286e-09
269,2548.546,1.898039593036297e-09
270,2559.4139999999998,2.0025337401322784e-09
271,2570.282,1.8799999383577415e-09
272,2581.15,1.9170676292544376e-09
273,2592.018,1.7995121465823203e-09
274,2602.886,1.873489966514423e-09
275,2613.754,1.8497925356471674e-09
276,2624.622,1.8854314713480603e-09
277,2635.49,1.9908967343933357e-09
278,2646.358,1.966374972500672e-09
279,2657.226,2.047651258269951e-09
280,2668.094,2.0379845185173734e-09
281,2678.962,2.0364162596116666e-09
282,2689.83,1.986560668827681e-09
283,2700.698,2.008402507223406e-09
284,2711.566,1.9860279651726673e-09
285,2722.434,2.105735025826775e-09
286,2731.1284,1.965632777157899e-09
287,2736.5624,1.9425112481422906e-09
288,2744.17,1.887231980175738e-09
289,2755.038,1.9004593652389032e-09
290,2765.906,1.9259754893614707e-09
291,2776.774,2.0381790134644235e-09
292,2787.642,2.0299277050692986e-09
293,2798.5099999999998,2.1192484201335066e-09
294,2809.378,2.1308365573406652e-09
295,2820.246,2.1135408220567416e-09
296,2831.114,2.060074702359374e-09
297,2841.982,2.0498960426873554e-09
298,2852.85,2.1488088016225207e-09
299,2863.718,2.228867393895973e-09
300,2874.586,2.4306199966187272e-09
301,2885.454,2.4845944281906393e-09
302,2896.322,2.3739296261274904e-09
303,2907.19,2.426274123731424e-09
304,2918.058,2.4489233208160548e-09
305,2928.926,2.3434883765417315e-09
306,2939.794,2.3677440654828524e-09
307,2950.662,2.283445768151219e-09
308,2961.5299999999997,2.2782286936321596e-09
309,2972.398,2.375591904815038e-09
310,2983.266,2.14017004320843e-09
311,2994.134,2.217175981581512e-09
312,3005.002,2.3570803775073193e-09
313,3015.87,2.4907497033301367e-09
314,3026.738,2.4204828729304843e-09
315,3037.6059999999998,2.081998290501467e-09
316,3048.474,2.1850810446185846e-09
317,3059.342,2.594390748128619e-09
318,3070.21,2.648476345003938e-09
319,3081.078,2.54579583250446e-09
320,3091.946,2.4315921481541545e-09
321,3102.814,2.349216954979423e-09
322,3113.682,2.521922265528175e-09
323,3124.55,2.5727322889495817e-09
324,3135.418,2.5876538026114624e-09
325,3146.286,2.61202890415684e-09
326,3162.588,2.7983406868231724e-09
327,3184.324,2.754434068725975e-09
328,3206.06,2.744856104119973e-09
329,3227.796,2.792954201770839e-09
330,3249.532,2.8362862198209973e-09
331,3271.268,2.884500302669626e-09
332,3293.004,2.9172726957404494e-09
333,3314.74,2.9573814538199776e-09
334,3336.476,2.98427799099656e-09
335,3358.212,3.0215788045861824e-09
336,3379.948,3.052100548238156e-09
337,3401.6839999999997,3.0398458404899e-09
338,3423.42,3.0694842991058175e-09
339,3445.156,3.1210127255785994e-09
340,3466.892,3.040726675192868e-09
341,3488.628,3.132851183828236e-09
342,3510.364,3.062618978782384e-09
343,3532.1,3.262217382636325e-09
344,3553.836,3.4056149724512143e-09
345,3575.572,3.4239384485705306e-09
346,3597.308,3.4305672027857454e-09
347,3619.044,3.440045052207245e-09
348,3640.7799999999997,3.4108376172780083e-09
349,3662.516,3.291659285920705e-09
350,3684.252,3.377131260324353e-09
351,3705.988,3.450120167079965e-09
352,3727.724,3.5295418243281825e-09
353,3749.46,3.5751947914878377e-09
354,3771.196,3.6129903974738285e-09
355,3792.932,3.7077488565195536e-09
356,3814.668,3.80132763958574e-09
357,3836.404,3.756681196159492e-09
358,3858.14,3.883967720745629e-09
359,3879.8759999999997,3.6672667797728004e-09
360,3901.612,3.6856429798521755e-09
361,3914.46601832,3.990026794785758e-09
362,3915.444247,3.98122528252831e-09
363,3916.42280172,3.9724208367593895e-09
364,3917.4010304,3.963619324501941e-09
365,3918.3793677599997,3.954816834407337e-09
366,3919.3579224799996,3.946012388638416e-09
367,3920.33615116,3.9372108763809646e-09
368,3921.31470588,3.906986207341745e-09
369,3922.29293456,3.85418783153977e-09
370,3923.2711632399996,3.801389455737819e-09
371,3924.2497179599995,3.748573482432527e-09
372,3925.22805532,3.6957692407960963e-09
373,3926.20650136,3.642959133325235e-09
374,3927.1848387200002,3.5901548916888043e-09
375,3928.1630674,3.578042373589046e-09
376,3929.1416221199997,3.5854893786361313e-09
377,3930.1198508,3.5929339024509754e-09
378,3931.09840552,3.600380907498061e-09
379,3932.0766342,3.607825431312902e-09
380,3933.05497156,3.6152707822051562e-09
381,3934.0334175999997,3.6227169601748244e-09
382,3935.01175496,3.690035268324369e-09
383,3935.99030968,3.767727664437483e-09
384,3936.9685383600004,3.845394174590143e-09
385,3937.94676704,3.92306068474273e-09
386,3938.92532176,4.000753080855845e-09
387,3939.90355044,4.078419591008468e-09
388,3940.88210516,4.1534080112897715e-09
389,3941.8604425199997,4.08229667562413e-09
390,3942.8386712,4.011193239462515e-09
391,3943.81722592,3.940066104788721e-09
392,3944.7954546,3.868962668627139e-09
393,3945.77400932,3.797835533953346e-09
394,3946.7522379999996,3.726732097791797e-09
395,3947.73046668,3.6721774827914835e-09
396,3948.7090214,3.6973597054228166e-09
397,3949.6873587600003,3.7225363344907137e-09
398,3950.6658048,3.747715760340317e-09
399,3951.64414216,3.772892389408203e-09
400,3952.62237084,3.798066221694371e-09
401,3953.6009255599997,3.823248444325704e-09
402,3954.57915424,3.8370829640034596e-09
403,3955.55770896,3.826174539956902e-09
404,3956.5359376399997,3.815269750436351e-09
405,3957.514275,3.804363749407124e-09
406,3958.49282972,3.793455325360566e-09
407,3959.4710584,3.78255053584001e-09
408,3960.44961312,3.771642111793451e-09
409,3961.4278418,3.772824704619067e-09
410,3962.40607048,3.789079845589556e-09
411,3963.3846252,3.805340404338392e-09
412,3964.36285388,3.8215955453088804e-09
413,3965.3414086000002,3.8378561040577236e-09
414,3966.3197459599996,3.854113050954318e-09
415,3967.29797464,3.870368191924815e-09
416,3968.27652936,3.905468207102958e-09
417,3969.25475804,3.9551196647674336e-09
418,3970.23331276,4.004787671079053e-09
419,3971.21154144,4.054439128743528e-09
420,3972.1898788,4.104096102623711e-09
421,3973.16832484,4.153758592719624e-09
422,3974.1466622000003,4.203415566599829e-09
423,3975.12521692,4.213705406109771e-09
424,3976.1034455999998,4.204714246510246e-09
425,3977.0816742800002,4.1957230869107116e-09
426,3978.060229,4.1867289305909515e-09
427,3979.03845768,4.177737770991422e-09
428,3980.0170124,4.168743614671662e-09
429,3980.99534976,4.1597514561653906e-09
430,3981.97357844,4.153005976345398e-09
431,3982.95213316,4.146941357246796e-09
432,3983.9303618400004,4.140878758789827e-09
433,3984.9089165600003,4.134814139691225e-09
434,3985.88714524,4.1287515412342615e-09
435,3986.8654826,4.122688269230081e-09
436,3987.84392864,4.116624323678693e-09
437,3988.8222659999997,4.106686997137162e-09
438,3989.8007120400002,4.096068308754003e-09
439,3990.7790494,4.085450799831962e-09
440,3991.75727808,4.074834470371031e-09
441,3992.7358328,4.064214602526767e-09
442,3993.7140614799996,4.05359827306584e-09
443,3994.6926162,4.042978405221572e-09
444,3995.67084488,4.030786635474066e-09
445,3996.6491822400003,4.018461693998915e-09
446,3997.62773696,4.0061340142563885e-09
447,3998.60596564,3.9938104419149365e-09
448,3999.5845203599997,3.9814827621724105e-09
449,4000.5627490399997,3.969159189830953e-09
450,4001.5409777200002,3.956835617489489e-09
451,4002.51953244,3.93353189057903e-09
452,4003.4978698,3.910041971326134e-09
453,4004.47631584,3.886549442662073e-09
454,4005.4546532,3.863059523409177e-09
455,4006.43288188,3.8395722135674355e-09
456,4007.4114366,3.816077075492219e-09
457,4008.38966528,3.795674061218976e-09
458,4009.36822,3.8702905016780625e-09
459,4010.34644868,3.944882081039714e-09
460,4011.3247860399997,4.019481947433832e-09
461,4012.30334076,4.094098387892953e-09
462,4013.2815694399997,4.16868996725457e-09
463,4014.2601241599996,4.2433064077136565e-09
464,4015.23835284,4.316102097678619e-09
465,4016.21658152,4.3643699780682895e-09
466,4017.19513624,4.412653945963917e-09
467,4018.1734736,4.460927188855565e-09
468,4019.15191964,4.509205794249214e-09
469,4020.130257,4.557479037140862e-09
470,4021.10848568,4.605746917530533e-09
471,4022.0870404,4.640032613600602e-09
472,4023.06526908,4.538044355295441e-09
473,4024.0438237999997,4.4360221046810635e-09
474,4025.02205248,4.334033846375807e-09
475,4026.0003898399996,4.232034257300938e-09
476,4026.97883588,4.13002333745622e-09
477,4027.95717324,4.028023748381304e-09
478,4028.93572796,3.936734219486767e-09
479,4029.91395664,3.9357642998131504e-09
480,4030.89218532,3.934794380139534e-09
481,4031.8707400400003,3.933824137195278e-09
482,4032.84896872,3.932854217521662e-09
483,4033.82752344,3.9318839745774066e-09
484,4034.8058608,3.93091394714691e-09
485,4035.7840894799997,3.9453061101090015e-09
486,4036.7626441999996,4.087797045752834e-09
487,4037.74087288,4.230240505518591e-09
488,4038.7194276,4.372731441162425e-09
489,4039.69765628,4.515174900928115e-09
490,4040.67599364,4.657634185986499e-09
491,4041.6544396799995,4.8001092963375735e-09
492,4042.63277704,5.168266653111461e-09
493,4043.6113317599998,7.652177771927388e-09
494,4044.5895604400002,1.0135261288195163e-08
495,4045.56778912,1.261834480446063e-08
496,4046.5463438399997,1.5102255923276557e-08
497,4047.5245725199998,1.7585339439543178e-08
498,4048.5031272399997,2.0069250558359102e-08
499,4049.4814646,2.2317305733240296e-08
500,4050.45969328,2.161270410753316e-08
501,4051.438248,2.0907867640710986e-08
502,4052.41647668,2.020326601500385e-08
503,4053.3950314,1.9498429548181676e-08
504,4054.37326008,1.879382792247454e-08
505,4055.3515974399998,1.808914801639583e-08
506,4056.33004348,1.734066721198246e-08
507,4057.30838084,1.5519313740276844e-08
508,4058.28693556,1.3697555613279387e-08
509,4059.26516424,1.1876404469220531e-08
510,4060.2433929199997,1.0055253325162523e-08
511,4061.2219476399996,8.233495198165068e-09
512,4062.20017632,6.412344054105365e-09
513,4063.17873104,4.59058592710791e-09
514,4064.1570684,4.6010508144627805e-09
515,4065.13529708,4.625067912623843e-09
516,4066.1138518,4.6490930155948665e-09
517,4067.0920804800003,4.67311011375594e-09
518,4068.0706352,4.697135216726963e-09
519,4069.04886388,4.721152314888026e-09
520,4070.02720124,4.745172081319071e-09
521,4071.0056472799997,4.5723574000741296e-09
522,4071.98398464,4.385645889689901e-09
523,4072.96253936,4.1988928970772655e-09
524,4073.94076804,4.012202127807328e-09
525,4074.91899672,3.82551135853739e-09
526,4075.89755144,3.638758365924755e-09
527,4076.87578012,3.4520675966548168e-09
528,4077.85433484,3.670658886157632e-09
529,4078.8326721999997,3.953316991028095e-09
530,4079.81090088,4.235943696420309e-09
531,4080.7894556,4.518664600247664e-09
532,4081.76768428,4.801291305639747e-09
533,4082.746239,5.084012209467103e-09
