,rest_wave,flux
0,98.8988,1.0058834014576991e-12
1,102.1592,-1.1312354062835483e-15
2,104.33279999999999,-1.900538401856585e-17
3,106.5064,6.896066942758549e-17
4,108.67999999999999,8.788194892593576e-18
5,110.8536,-6.801285652023589e-17
6,113.0272,-1.9874166099598237e-17
7,115.2008,4.1056496851392004e-17
8,117.3744,-3.248018955259864e-17
9,119.548,1.1400241931756882e-17
10,123.8952,-9.198116551526612e-18
11,128.2424,-1.677094209565454e-17
12,131.5028,7.391121534369482e-18
13,135.85,-8.271112016061146e-18
14,138.0236,3.54342704311623e-18
15,139.1104,-6.01638531210358e-18
16,142.3708,-4.858126399081857e-19
17,143.45759999999999,-5.2130521538050904e-18
18,145.6312,3.510417353109358e-18
19,148.8916,-3.016307307669717e-18
20,152.152,9.334138914901611e-19
21,155.4124,1.4343570068945404e-18
22,159.7596,2.7287316771240083e-19
23,164.1068,4.0513378091182807e-19
24,168.454,2.49525507224808e-20
25,172.8012,6.458249951742604e-20
26,176.0616,-1.2916751950707527e-19
27,180.40879999999999,-7.662362327858329e-19
28,184.756,-1.0299863196987956e-18
29,188.0164,-4.598839002319959e-19
30,192.3636,-7.35423347625312e-19
31,195.624,-4.898320814721484e-19
32,197.7976,-1.0265565773403432e-18
33,202.1448,1.581325920394633e-18
34,207.5788,3.337749071390783e-19
35,210.8392,-9.99613038552314e-19
36,215.1864,-1.1020042929835045e-18
37,219.5336,-2.5751887907378885e-19
38,222.794,-1.008566194509161e-18
39,228.228,-2.5591938671372923e-19
40,234.7488,1.9410207588184544e-18
41,239.096,-1.3550457873714697e-18
42,242.3564,-1.253888682004919e-18
43,246.7036,-9.16209809269713e-19
44,249.964,-1.9989985976072954e-18
45,254.31119999999999,-1.3660652068363485e-18
46,260.832,1.6974479010280261e-18
47,267.3528,-4.161150485371197e-19
48,273.8736,-1.1093870009695808e-18
49,279.3076,4.747579481986057e-19
50,282.568,-1.0484744129773858e-18
51,286.91519999999997,1.0499223691026416e-18
52,292.3492,-8.486205435841695e-19
53,297.7832,1.2929496629536105e-18
54,303.2172,-6.956510181991048e-19
55,308.6512,-8.553876596783966e-19
56,315.17199999999997,1.195137261951714e-20
57,321.6928,1.4976136021150208e-19
58,327.1268,-1.5789061579176252e-19
59,334.7344,-8.783761733328523e-19
60,345.6024,4.057558552294443e-19
61,356.4704,4.846129162262053e-19
62,367.3384,1.106922121373769e-19
63,378.2064,8.513731089325099e-20
64,387.9876,1.5645458563309686e-19
65,397.7688,1.4148148932140039e-18
66,407.55,4.5660767845898845e-18
67,418.418,1.1482747417779896e-17
68,429.286,3.5001188703351546e-17
69,440.154,8.369831388745725e-17
70,449.9352,1.721140578316862e-16
71,458.6296,3.0323355163836115e-16
72,467.324,5.222602604934429e-16
73,479.2788,9.719374245405462e-16
74,490.1468,1.7318120737283555e-15
75,499.928,2.654944549138803e-15
76,510.796,4.145012004846235e-15
77,521.664,6.116493826828489e-15
78,532.532,8.735269151206338e-15
79,543.4,1.2234860831501867e-14
80,549.9208,1.4628432752919274e-14
81,556.4416,1.688672548437972e-14
82,565.136,2.1928034587830686e-14
83,576.004,2.7880659923185277e-14
84,586.872,3.349114030892973e-14
85,597.74,4.025659492559246e-14
86,608.608,5.131737018477443e-14
87,619.476,6.036865004427663e-14
88,630.3439999999999,7.046071710956107e-14
89,641.212,8.147935700604233e-14
90,652.08,9.154197302539154e-14
91,662.948,1.0318095603607652e-13
92,673.816,1.166613275426065e-13
93,684.684,1.3052092591381704e-13
94,695.552,1.4003739183842017e-13
95,706.42,1.5318796577006055e-13
96,715.1144,1.6270199698976345e-13
97,722.722,1.7187389894587537e-13
98,733.59,1.8493136901255733e-13
99,744.458,1.9682475303352443e-13
100,755.326,2.0783978202309116e-13
101,766.194,2.2208435048195318e-13
102,778.1487999999999,2.3376036532196737e-13
103,789.0168,2.4490659763308727e-13
104,798.798,2.5470577124661856e-13
105,809.6659999999999,2.649861456990324e-13
106,820.534,2.729420494604349e-13
107,831.402,2.5024868083932145e-13
108,842.27,2.914477922264769e-13
109,853.138,2.937755369961861e-13
110,864.006,3.1373112595058316e-13
111,874.874,3.2328009225623285e-13
112,885.742,3.3074252476749334e-13
113,896.61,3.3767931242326697e-13
114,907.478,3.3940929023283633e-13
115,918.346,3.56135680569015e-13
116,929.2139999999999,3.615506595409865e-13
117,940.082,3.726700070718981e-13
118,950.95,3.8131073798767244e-13
119,961.818,3.948130429392067e-13
120,972.686,4.156211335480728e-13
121,983.554,1.2811827697666092e-12
122,994.422,2.309799016886519e-11
123,1005.29,2.144648633291947e-11
124,1016.158,2.6254821240185786e-11
125,1027.026,2.69476948169181e-11
126,1037.894,3.217351626682829e-11
127,1048.762,3.45027252899088e-11
128,1059.6299999999999,2.471186911333375e-11
129,1070.498,4.3995834046612496e-11
130,1081.366,5.571113024861275e-11
131,1092.234,5.688082194034125e-11
132,1103.102,4.224470101213867e-11
133,1113.97,2.759531421229979e-11
134,1124.838,3.9446260006042085e-11
135,1135.706,6.830233335669453e-11
136,1146.574,1.0367657276827563e-10
137,1157.442,1.2338047475340517e-10
138,1168.31,1.4954602347526373e-10
139,1179.1779999999999,1.584858934514884e-10
140,1190.046,1.7065022206750325e-10
141,1200.914,2.2224458071833596e-10
142,1211.782,2.375869951760672e-10
143,1222.65,2.3583429113062317e-10
144,1233.518,2.5341649973637347e-10
145,1244.386,2.321474162158507e-10
146,1255.254,2.0898848037782694e-10
147,1266.122,1.970119130319357e-10
148,1276.99,1.6458664162982735e-10
149,1287.858,1.5469239184626765e-10
150,1298.7259999999999,1.54606231593287e-10
151,1309.594,1.8023589734961597e-10
152,1320.462,1.90093827254064e-10
153,1331.33,1.8797765991949702e-10
154,1342.198,1.678528176330153e-10
155,1353.066,1.7128562035572736e-10
156,1363.934,1.9628606248741679e-10
157,1374.802,2.0427766255877772e-10
158,1385.67,3.015520576574402e-10
159,1396.538,3.8189667509143486e-10
160,1407.406,4.1870981855575027e-10
161,1418.274,4.1902942569225486e-10
162,1429.142,4.986975847770492e-10
163,1440.01,5.372729831090503e-10
164,1450.878,5.591909230288032e-10
165,1461.746,6.150804307091083e-10
166,1472.614,6.048890674188227e-10
167,1483.482,6.032456988887274e-10
168,1494.35,6.409444978875097e-10
169,1505.218,6.653907768408894e-10
170,1516.086,6.923369276619599e-10
171,1526.954,7.024368628094128e-10
172,1537.822,6.947077973629377e-10
173,1548.69,7.123037570078998e-10
174,1559.558,6.929507306562528e-10
175,1567.1656,7.4207666801359e-10
176,1572.5996,7.592798736683242e-10
177,1581.294,7.708476684464773e-10
178,1592.162,7.541807087135694e-10
179,1603.03,7.606556864070308e-10
180,1613.898,7.772250296891923e-10
181,1624.766,7.966987779206757e-10
182,1635.634,8.168299361256646e-10
183,1643.2416,8.10478216767878e-10
184,1648.6756,8.274601944390595e-10
185,1657.37,7.977642524695552e-10
186,1668.238,7.891905317042604e-10
187,1679.106,8.36740313929889e-10
188,1689.974,8.207757838712562e-10
189,1700.8419999999999,7.813127177319243e-10
190,1711.71,8.303500107234744e-10
191,1722.578,8.67438610018078e-10
192,1733.446,9.024005134300096e-10
193,1744.314,8.754708610352398e-10
194,1755.182,8.880643505048548e-10
195,1766.05,8.546009867628706e-10
196,1776.918,8.840861890131868e-10
197,1787.786,9.063456923934185e-10
198,1798.654,8.382555121083771e-10
199,1809.522,9.247729303449073e-10
200,1817.1296,8.688359697036937e-10
201,1822.5636,9.1406668184574e-10
202,1831.258,9.59028006473254e-10
203,1842.126,9.315569891772403e-10
204,1852.994,9.334460712572858e-10
205,1863.862,9.571542371816974e-10
206,1874.73,9.575245840912212e-10
207,1885.598,9.947357978074127e-10
208,1896.466,9.878932288093996e-10
209,1907.334,1.0212561548357569e-09
210,1918.202,9.678657609247404e-10
211,1929.07,1.0307931006162474e-09
212,1939.9379999999999,1.0385753399922622e-09
213,1950.806,1.078576571987261e-09
214,1961.674,1.0816860906860458e-09
215,1972.542,1.08006289220865e-09
216,1983.41,1.0677463909888386e-09
217,1994.278,1.0714879469773374e-09
218,2005.146,1.0426514227950466e-09
219,2016.014,1.071821770779176e-09
220,2026.882,1.091489919344036e-09
221,2037.75,1.115143257477296e-09
222,2048.618,1.1258213497145552e-09
223,2059.486,1.1335934585842908e-09
224,2070.354,1.1296616263955061e-09
225,2081.2219999999998,1.1437803526873744e-09
226,2092.09,1.1571458960796375e-09
227,2102.958,1.139784527740039e-09
228,2113.826,1.191991987588641e-09
229,2124.694,1.1996531429502414e-09
230,2137.7356,1.223052490555011e-09
231,2147.5168,1.2146383629366105e-09
232,2156.2112,1.2155338398629486e-09
233,2168.166,1.2118511569931922e-09
234,2179.034,1.2028096737491003e-09
235,2189.902,1.1927963365383561e-09
236,2200.77,1.1962995341604981e-09
237,2211.638,1.2355004290516428e-09
238,2222.506,1.258344067970154e-09
239,2233.374,1.2424149901028801e-09
240,2244.242,1.2503305227172734e-09
241,2254.0232,1.2900970395671339e-09
242,2258.3704,1.3077303416562371e-09
243,2265.978,1.3149131052812822e-09
244,2276.846,1.2998652857003953e-09
245,2287.714,1.3017098942520185e-09
246,2298.582,1.3155228159269562e-09
247,2309.45,1.3181005419018935e-09
248,2320.3179999999998,1.2723345131484834e-09
249,2331.186,1.3367074084224393e-09
250,2342.054,1.3389895555570622e-09
251,2352.922,1.3107110275328329e-09
252,2363.79,1.3156162412192438e-09
253,2374.658,1.343763726385184e-09
254,2385.526,1.395159942884726e-09
255,2396.394,1.3703252574334028e-09
256,2407.262,1.3266396261793411e-09
257,2418.13,1.3410417365149889e-09
258,2428.998,1.4290526995614737e-09
259,2439.866,1.38527184921689e-09
260,2450.734,1.3530725330988933e-09
261,2461.602,1.3496781707020753e-09
262,2472.47,1.4126153020313879e-09
263,2483.338,1.451232282393748e-09
264,2494.206,1.4156317404624908e-09
265,2505.074,1.4396279243562718e-09
266,2515.942,1.424933285765782e-09
267,2526.81,1.326719258933774e-09
268,2537.678,1.3956496926094385e-09
269,2548.546,1.3394944857909138e-09
270,2559.4139999999998,1.4367256721206e-09
271,2570.282,1.3684776928180133e-09
272,2581.15,1.4145639924071267e-09
273,2592.018,1.325047601742319e-09
274,2602.886,1.392092949760375e-09
275,2613.754,1.3860469041972991e-09
276,2624.622,1.4224994812001232e-09
277,2635.49,1.5089344906327783e-09
278,2646.358,1.4936788244994068e-09
279,2657.226,1.550213357104272e-09
280,2668.094,1.5482404482968413e-09
281,2678.962,1.5392416399294918e-09
282,2689.83,1.5049150478987076e-09
283,2700.698,1.5190501661833123e-09
284,2711.566,1.5212512240330278e-09
285,2722.434,1.6242842631968143e-09
286,2731.1284,1.5299721825593394e-09
287,2736.5624,1.4974570353276982e-09
288,2744.17,1.4606838555004603e-09
289,2755.038,1.4896104813998262e-09
290,2765.906,1.5241203204004364e-09
291,2776.774,1.6167688192840428e-09
292,2787.642,1.614916611026497e-09
293,2798.5099999999998,1.6843356510425433e-09
294,2809.378,1.6967827595324691e-09
295,2820.246,1.686046273159263e-09
296,2831.114,1.644920776419007e-09
297,2841.982,1.6362545101945877e-09
298,2852.85,1.7111590207519869e-09
299,2863.718,1.7925063274724465e-09
300,2874.586,1.958750474230212e-09
301,2885.454,2.0021201462962498e-09
302,2896.322,1.9329270519046633e-09
303,2907.19,1.9851536119075534e-09
304,2918.058,2.0261728171469296e-09
305,2928.926,1.9537817211278815e-09
306,2939.794,1.976451490791876e-09
307,2950.662,1.9158679360668404e-09
308,2961.5299999999997,1.922947026280033e-09
309,2972.398,1.9937915352663947e-09
310,2983.266,1.798213235026121e-09
311,2994.134,1.8675354899540426e-09
312,3005.002,1.9767717642627355e-09
313,3015.87,2.047299661703512e-09
314,3026.738,1.9286598509739913e-09
315,3037.6059999999998,1.565906969157664e-09
316,3048.474,1.676242869914864e-09
317,3059.342,2.1200091657537777e-09
318,3070.21,2.2261735678191834e-09
319,3081.078,2.2024385454071694e-09
320,3091.946,2.1452530768577223e-09
321,3102.814,2.0528573601447766e-09
322,3113.682,2.226323482156439e-09
323,3124.55,2.2757277470466447e-09
324,3135.418,2.2975844584446774e-09
325,3146.286,2.328668505771938e-09
326,3162.588,2.4702975193506634e-09
327,3184.324,2.4567970158921462e-09
328,3206.06,2.4686411205016547e-09
329,3227.796,2.5232079423147995e-09
330,3249.532,2.571397738977139e-09
331,3271.268,2.629978625743028e-09
332,3293.004,2.666650783482371e-09
333,3314.74,2.7192705013097967e-09
334,3336.476,2.730911175829154e-09
335,3358.212,2.7692385770230644e-09
336,3379.948,2.7982905260319616e-09
337,3401.6839999999997,2.8058510601391983e-09
338,3423.42,2.8329346174750845e-09
339,3445.156,2.899859889391763e-09
340,3466.892,2.8485534231328986e-09
341,3488.628,2.943275791460603e-09
342,3510.364,2.9045827771220297e-09
343,3532.1,3.0716930682335847e-09
344,3553.836,3.207314657361667e-09
345,3575.572,3.241708165974783e-09
346,3597.308,3.2768540679634892e-09
347,3619.044,3.2861319335552684e-09
348,3640.7799999999997,3.2809531452411812e-09
349,3662.516,3.1894410579960436e-09
350,3684.252,3.300237553575638e-09
351,3705.988,3.370383535811974e-09
352,3727.724,3.475497700812605e-09
353,3749.46,3.519943705964475e-09
354,3771.196,3.5627656308151545e-09
355,3792.932,3.640006642217102e-09
356,3814.668,3.730259470500636e-09
357,3836.404,3.7194803783693744e-09
358,3858.14,3.864293161703544e-09
359,3879.8759999999997,3.7353627613178175e-09
360,3901.612,3.6913922672651597e-09
361,3914.46601832,3.1371243560583996e-09
362,3915.444247,3.2915110882522935e-09
363,3916.42280172,3.4459492769728434e-09
364,3917.4010304,3.6003360091667373e-09
365,3918.3793677599997,3.754739893536159e-09
366,3919.3579224799996,3.909178082256709e-09
367,3920.33615116,4.063564814450675e-09
368,3921.31470588,4.086282837251229e-09
369,3922.29293456,3.970118040036912e-09
370,3923.2711632399996,3.85395324282265e-09
371,3924.2497179599995,3.7377497283111975e-09
372,3925.22805532,3.621572025331133e-09
373,3926.20650136,3.5053814165853747e-09
374,3927.1848387200002,3.3892037136053106e-09
375,3928.1630674,3.367414799733551e-09
376,3929.1416221199997,3.3909987233163264e-09
377,3930.1198508,3.414574789083617e-09
378,3931.09840552,3.4381587126663918e-09
379,3932.0766342,3.4617347784336715e-09
380,3933.05497156,3.485313463472779e-09
381,3934.0334175999997,3.508894767783715e-09
382,3935.01175496,3.4915602349035133e-09
383,3935.99030968,3.4671431055207186e-09
384,3936.9685383600004,3.4427341115652917e-09
385,3937.94676704,3.4183251176098876e-09
386,3938.92532176,3.393907988227093e-09
387,3939.90355044,3.3694989942716776e-09
388,3940.88210516,3.3455916542060587e-09
389,3941.8604425199997,3.3492311441414383e-09
390,3942.8386712,3.3528702297788936e-09
391,3943.81722592,3.3565105283101268e-09
392,3944.7954546,3.3601496139475804e-09
393,3945.77400932,3.3637899124788136e-09
394,3946.7522379999996,3.3674289981162652e-09
395,3947.73046668,3.3631163449591245e-09
396,3948.7090214,3.3204798213952197e-09
397,3949.6873587600003,3.277852768405169e-09
398,3950.6658048,3.235220980128211e-09
399,3951.64414216,3.19259392713818e-09
400,3952.62237084,3.1499716094350757e-09
401,3953.6009255599997,3.107335085871171e-09
402,3954.57915424,3.0855328496426392e-09
403,3955.55770896,3.1091622656689543e-09
404,3956.5359376399997,3.132783808722351e-09
405,3957.514275,3.1564079761000688e-09
406,3958.49282972,3.1800373921263834e-09
407,3959.4710584,3.2036589351797914e-09
408,3960.44961312,3.2272883512061065e-09
409,3961.4278418,3.28430438072992e-09
410,3962.40607048,3.382962181042752e-09
411,3963.3846252,3.481652863635424e-09
412,3964.36285388,3.580310663948256e-09
413,3965.3414086000002,3.6790013465409737e-09
414,3966.3197459599996,3.777670107613691e-09
415,3967.29797464,3.876327907926569e-09
416,3968.27652936,3.934088363344905e-09
417,3969.25475804,3.9601899922947205e-09
418,3970.23331276,3.986300320820898e-09
419,3971.21154144,4.012401949770714e-09
420,3972.1898788,4.038506478579313e-09
421,3973.16832484,4.064613907246707e-09
422,3974.1466622000003,4.0907184360553185e-09
423,3975.12521692,4.094357074898741e-09
424,3976.1034455999998,4.08699349192089e-09
425,3977.0816742800002,4.079629908943032e-09
426,3978.060229,4.072263871710214e-09
427,3979.03845768,4.064900288732361e-09
428,3980.0170124,4.057534251499543e-09
429,3980.99534976,4.050169850436702e-09
430,3981.97357844,4.0226646959479066e-09
431,3982.95213316,3.989023548625239e-09
432,3983.9303618400004,3.955393610036667e-09
433,3984.9089165600003,3.921752462714e-09
434,3985.88714524,3.8881225241254596e-09
435,3986.8654826,3.854488849292189e-09
436,3987.84392864,3.820851438214235e-09
437,3988.8222659999997,3.8019201321995704e-09
438,3989.8007120400002,3.785568360324849e-09
439,3990.7790494,3.7692184047082614e-09
440,3991.75727808,3.752870265349793e-09
441,3992.7358328,3.73651667721696e-09
442,3993.7140614799996,3.720168537858499e-09
443,3994.6926162,3.7038149497256583e-09
444,3995.67084488,3.663388101875018e-09
445,3996.6491822400003,3.6209420948455973e-09
446,3997.62773696,3.57848665746582e-09
447,3998.60596564,3.536045365611617e-09
448,3999.5845203599997,3.4935899282318394e-09
449,4000.5627490399997,3.4511486363776166e-09
450,4001.5409777200002,3.4087073445233744e-09
451,4002.51953244,3.3956618257563723e-09
452,4003.4978698,3.383131970027453e-09
453,4004.47631584,3.370600722401648e-09
454,4005.4546532,3.3580708666727286e-09
455,4006.43288188,3.3455424028406883e-09
456,4007.4114366,3.3330097633180043e-09
457,4008.38966528,3.324948954769529e-09
458,4009.36822,3.4545326275401634e-09
459,4010.34644868,3.584073124942275e-09
460,4011.3247860399997,3.713628014133874e-09
461,4012.30334076,3.8432116869045684e-09
462,4013.2815694399997,3.97275218430662e-09
463,4014.2601241599996,4.102335857077254e-09
464,4015.23835284,4.22655052230115e-09
465,4016.21658152,4.278026299630811e-09
466,4017.19513624,4.32951923364661e-09
467,4018.1734736,4.3810007298716425e-09
468,4019.15191964,4.43248794499207e-09
469,4020.130257,4.483969441217102e-09
470,4021.10848568,4.5354452185467635e-09
471,4022.0870404,4.577478642312706e-09
472,4023.06526908,4.527416922599759e-09
473,4024.0438237999997,4.477338517500823e-09
474,4025.02205248,4.42727679778783e-09
475,4026.0003898399996,4.377209516279569e-09
476,4026.97883588,4.3271366729759236e-09
477,4027.95717324,4.277069391467639e-09
478,4028.93572796,4.225361485859514e-09
479,4029.91395664,4.159962609502177e-09
480,4030.89218532,4.094563733144841e-09
481,4031.8707400400003,4.0291430595839405e-09
482,4032.84896872,3.9637441832266345e-09
483,4033.82752344,3.898323509665765e-09
484,4034.8058608,3.832917367573897e-09
485,4035.7840894799997,3.78479880689126e-09
486,4036.7626441999996,3.880753027076882e-09
487,4037.74087288,3.976675276731623e-09
488,4038.7194276,4.072629496917246e-09
489,4039.69765628,4.168551746571943e-09
490,4040.67599364,4.264484653070267e-09
491,4041.6544396799995,4.360428216412218e-09
492,4042.63277704,4.456489927575415e-09
493,4043.6113317599998,4.553780383554388e-09
494,4044.5895604400002,4.651038423788422e-09
495,4045.56778912,4.748296464022366e-09
496,4046.5463438399997,4.845586920001339e-09
497,4047.5245725199998,4.942844960235327e-09
498,4048.5031272399997,5.0401354162143e-09
499,4049.4814646,5.126634712498869e-09
500,4050.45969328,5.0779967990496926e-09
501,4051.438248,5.029342674763909e-09
502,4052.41647668,4.980704761314732e-09
503,4053.3950314,4.932050637028948e-09
504,4054.37326008,4.883412723579771e-09
505,4055.3515974399998,4.834769406518399e-09
506,4056.33004348,4.785347758323073e-09
507,4057.30838084,4.716963909429752e-09
508,4058.28693556,4.648564867501821e-09
509,4059.26516424,4.580188615125836e-09
510,4060.2433929199997,4.511812362749883e-09
511,4061.2219476399996,4.443413320821952e-09
512,4062.20017632,4.3750370684459355e-09
513,4063.17873104,4.306638026518006e-09
514,4064.1570684,4.376048554036991e-09
515,4065.13529708,4.446470892719426e-09
516,4066.1138518,4.516916702906804e-09
517,4067.0920804800003,4.587339041589272e-09
518,4068.0706352,4.657784851776649e-09
519,4069.04886388,4.728207190459085e-09
520,4070.02720124,4.798637352976489e-09
521,4071.0056472799997,4.590762827152523e-09
522,4071.98398464,4.363235204814547e-09
523,4072.96253936,4.135657032016242e-09
524,4073.94076804,3.908154684908536e-09
525,4074.91899672,3.680652337800831e-09
526,4075.89755144,3.453074165002525e-09
527,4076.87578012,3.2255718178948203e-09
528,4077.85433484,3.4752675294154613e-09
529,4078.8326721999997,3.8004006188180616e-09
530,4079.81090088,4.125497590348247e-09
531,4080.7894556,4.45070291549613e-09
