,rest_wave,flux
0,98.8988,6.380388232676729e-12
1,102.1592,-7.129112449290012e-15
2,104.33279999999999,2.387355968076787e-16
3,106.5064,1.2402308597612807e-15
4,108.67999999999999,1.3709430746871401e-15
5,110.8536,2.2287273212882814e-16
6,113.0272,1.246946456986167e-15
7,115.2008,3.440971194730466e-15
8,117.3744,3.443135266074149e-15
9,119.548,5.825786463269665e-15
10,123.8952,3.3302511863203155e-15
11,128.2424,5.257218822759994e-15
12,131.5028,1.2153032849679923e-14
13,135.85,1.5070465583664013e-14
14,138.0236,1.166351354081003e-14
15,139.1104,1.3794910306908582e-14
16,142.3708,1.4178222448730663e-14
17,143.45759999999999,1.8493998979809113e-14
18,145.6312,1.627334066375863e-14
19,148.8916,1.840741123508145e-14
20,152.152,2.5507883421068972e-14
21,155.4124,2.508883795942801e-14
22,159.7596,1.8215044149944563e-14
23,164.1068,2.4916532544091675e-14
24,168.454,2.7541735238484947e-14
25,172.8012,3.532032692523295e-14
26,176.0616,3.107897867548111e-14
27,180.40879999999999,4.237723400888786e-14
28,184.756,4.287908516927398e-14
29,188.0164,3.552569324235314e-14
30,192.3636,3.9201172867691305e-14
31,195.624,5.046215805926059e-14
32,197.7976,6.017027076964124e-14
33,202.1448,4.8870953498132715e-14
34,207.5788,6.304186463845909e-14
35,210.8392,7.168869411741104e-14
36,215.1864,8.518046503591488e-14
37,219.5336,7.654277378474081e-14
38,222.794,7.984399014139214e-14
39,228.228,8.908310036409743e-14
40,234.7488,8.962170122165886e-14
41,239.096,6.173427191220951e-14
42,242.3564,8.49685554627098e-14
43,246.7036,1.0705806748573787e-13
44,249.964,1.1575241951523677e-13
45,254.31119999999999,2.02324907586533e-13
46,260.832,2.705543006435592e-13
47,267.3528,2.7275923830815274e-13
48,273.8736,3.607598376147015e-13
49,279.3076,3.325329406965617e-13
50,282.568,3.5424996922764855e-13
51,286.91519999999997,4.535982236448264e-13
52,292.3492,4.096849190907911e-13
53,297.7832,4.326397159707994e-13
54,303.2172,3.740961260315984e-13
55,308.6512,4.334377247007102e-13
56,315.17199999999997,4.535260342872566e-13
57,321.6928,4.026666996793216e-13
58,327.1268,4.592560822690573e-13
59,334.7344,3.6917956030417293e-13
60,345.6024,4.93764277271177e-13
61,356.4704,5.599084834469362e-13
62,367.3384,4.758924065585905e-13
63,378.2064,4.748590093281298e-13
64,387.9876,5.043787396516967e-13
65,397.7688,5.695695868879265e-13
66,407.55,5.204430757383869e-13
67,418.418,4.70033070930939e-13
68,429.286,5.602170632356373e-13
69,440.154,5.678942474906848e-13
70,449.9352,5.463464438502012e-13
71,458.6296,5.342714166889447e-13
72,467.324,5.351911943176214e-13
73,479.2788,5.237600155478024e-13
74,490.1468,5.520993966825365e-13
75,499.928,5.367515758458882e-13
76,510.796,5.339851337129578e-13
77,521.664,5.247902208913513e-13
78,532.532,5.263359924004765e-13
79,543.4,5.360260580350977e-13
80,549.9208,5.167774737578018e-13
81,556.4416,4.892854368331638e-13
82,565.136,5.331889500840102e-13
83,576.004,5.291440013135913e-13
84,586.872,4.981508585525508e-13
85,597.74,4.700278974545854e-13
86,608.608,5.14802719102217e-13
87,619.476,4.978129299085884e-13
88,630.3439999999999,4.979160896111672e-13
89,641.212,4.970058246022558e-13
90,652.08,4.889337445232965e-13
91,662.948,4.560566210208537e-13
92,673.816,4.866668215058979e-13
93,684.684,4.749497305842552e-13
94,695.552,4.731486736382559e-13
95,706.42,4.775324033490163e-13
96,715.1144,4.709992224593314e-13
97,722.722,4.701804699221465e-13
98,733.59,4.717981866676236e-13
99,744.458,4.3964848962454796e-13
100,755.326,4.677653710192895e-13
101,766.194,4.612480251574175e-13
102,778.1487999999999,4.706182089143866e-13
103,789.0168,4.70012728362209e-13
104,798.798,4.697253241801625e-13
105,809.6659999999999,4.676940790105429e-13
106,820.534,4.737407542894302e-13
107,831.402,4.0165945262609913e-13
108,842.27,4.84794160275937e-13
109,853.138,4.777995750920999e-13
110,864.006,5.010589266480759e-13
111,874.874,5.137717439180907e-13
112,885.742,5.202640167660788e-13
113,896.61,5.233394679946608e-13
114,907.478,5.208975670511721e-13
115,918.346,5.539393820374715e-13
116,929.2139999999999,5.688495695184563e-13
117,940.082,5.959689862761657e-13
118,950.95,6.718863424257408e-13
119,961.818,8.588872630311459e-13
120,972.686,1.2328904304191527e-12
121,983.554,3.6235296614076476e-11
122,994.422,9.318629745701869e-10
123,1005.29,8.140834964983046e-10
124,1016.158,1.0779578025243033e-09
125,1027.026,9.55316521855621e-10
126,1037.894,9.734265279133716e-10
127,1048.762,1.017946389041103e-09
128,1059.6299999999999,6.899119056767237e-10
129,1070.498,6.292423601665783e-10
130,1081.366,1.0700898426018307e-09
131,1092.234,1.090520846614408e-09
132,1103.102,1.0628616729339228e-09
133,1113.97,8.962079952718838e-10
134,1124.838,9.469265582524183e-10
135,1135.706,1.3154311341155405e-09
136,1146.574,1.357110125702586e-09
137,1157.442,1.2567766049054294e-09
138,1168.31,1.2321930175147142e-09
139,1179.1779999999999,1.144341768442313e-09
140,1190.046,1.362379801215799e-09
141,1200.914,1.353570406433689e-09
142,1211.782,1.1537609855259095e-09
143,1222.65,9.727126310163241e-10
144,1233.518,1.4162356744329509e-09
145,1244.386,1.3823106565283854e-09
146,1255.254,1.07862169070263e-09
147,1266.122,1.1540753747865514e-09
148,1276.99,1.3791630878490793e-09
149,1287.858,2.052079071191233e-09
150,1298.7259999999999,2.481229253363972e-09
151,1309.594,2.969724976806023e-09
152,1320.462,3.1270094171427236e-09
153,1331.33,3.012778806881235e-09
154,1342.198,2.57682824668907e-09
155,1353.066,2.2029343985537323e-09
156,1363.934,1.6673422084575998e-09
157,1374.802,1.491899029209111e-09
158,1385.67,1.5773350869502592e-09
159,1396.538,1.4467486703574269e-09
160,1407.406,1.401210586391673e-09
161,1418.274,1.4710737978594765e-09
162,1429.142,1.4935358207377028e-09
163,1440.01,1.4899434438921318e-09
164,1450.878,1.5432703918242367e-09
165,1461.746,1.4756435532708628e-09
166,1472.614,1.6277268466035155e-09
167,1483.482,1.5469273094944328e-09
168,1494.35,1.618463506791226e-09
169,1505.218,1.54584360931483e-09
170,1516.086,1.5820400508415165e-09
171,1526.954,1.747432327401334e-09
172,1537.822,1.5335416385245928e-09
173,1548.69,1.4824918144546829e-09
174,1559.558,1.574379909086854e-09
175,1567.1656,1.6599010779702014e-09
176,1572.5996,1.675309913981058e-09
177,1581.294,1.6760385277003957e-09
178,1592.162,1.585571550614229e-09
179,1603.03,1.616220896128437e-09
180,1613.898,1.5774027810559346e-09
181,1624.766,1.6739770233229183e-09
182,1635.634,1.6242932909654928e-09
183,1643.2416,1.5105575317421925e-09
184,1648.6756,1.5644999492370368e-09
185,1657.37,1.4402208107665672e-09
186,1668.238,1.4187730289107807e-09
187,1679.106,1.293793807334944e-09
188,1689.974,1.570111811489071e-09
189,1700.8419999999999,1.3075395009807341e-09
190,1711.71,1.5652011372347537e-09
191,1722.578,1.464954470777722e-09
192,1733.446,1.6950122202130274e-09
193,1744.314,1.7025413966704045e-09
194,1755.182,1.6931668654541108e-09
195,1766.05,1.6462910300915498e-09
196,1776.918,1.6977996131345236e-09
197,1787.786,1.7247572635730087e-09
198,1798.654,1.624476015647921e-09
199,1809.522,1.724733401691903e-09
200,1817.1296,1.609595160535659e-09
201,1822.5636,1.7603773704546823e-09
202,1831.258,1.8322566706139881e-09
203,1842.126,1.764037165646102e-09
204,1852.994,1.7331771399614282e-09
205,1863.862,1.7268874722858273e-09
206,1874.73,1.731801182918658e-09
207,1885.598,1.7990120342183878e-09
208,1896.466,1.7867331412914819e-09
209,1907.334,1.8591190589186227e-09
210,1918.202,1.7369310796779484e-09
211,1929.07,1.81842371411055e-09
212,1939.9379999999999,1.8405749627492505e-09
213,1950.806,1.942128612042691e-09
214,1961.674,1.913630605783343e-09
215,1972.542,1.8796473485254565e-09
216,1983.41,1.8626910433229603e-09
217,1994.278,1.8197210598724303e-09
218,2005.146,1.734324072069971e-09
219,2016.014,1.7711199363520027e-09
220,2026.882,1.8206722527294977e-09
221,2037.75,1.8721972749521813e-09
222,2048.618,1.841086731567392e-09
223,2059.486,1.8388519698785014e-09
224,2070.354,1.8502981744453458e-09
225,2081.2219999999998,1.862525830454631e-09
226,2092.09,1.8505872352672109e-09
227,2102.958,1.811078991522452e-09
228,2113.826,1.9199550155584332e-09
229,2124.694,1.900593653217299e-09
230,2137.7356,1.989274031052969e-09
231,2147.5168,1.99605204396943e-09
232,2156.2112,1.9574526667708823e-09
233,2168.166,1.924054776948164e-09
234,2179.034,1.920037798356154e-09
235,2189.902,1.893470902183422e-09
236,2200.77,1.9066778862822684e-09
237,2211.638,1.926987280115415e-09
238,2222.506,1.985615369265175e-09
239,2233.374,1.9590378724303693e-09
240,2244.242,1.95911006628329e-09
241,2254.0232,2.055493809934921e-09
242,2258.3704,2.0624208457260395e-09
243,2265.978,2.0714158112422677e-09
244,2276.846,2.014715400298687e-09
245,2287.714,1.989808349622865e-09
246,2298.582,2.0096621383116357e-09
247,2309.45,2.024909068692403e-09
248,2320.3179999999998,1.899800725067473e-09
249,2331.186,1.996129865644128e-09
250,2342.054,2.0223450307192597e-09
251,2352.922,1.970145177062211e-09
252,2363.79,1.958644776460627e-09
253,2374.658,1.9857677504038287e-09
254,2385.526,2.0559261880864307e-09
255,2396.394,2.01584633828555e-09
256,2407.262,1.92832809954443e-09
257,2418.13,1.915212047151747e-09
258,2428.998,2.0464273052218583e-09
259,2439.866,1.957907300847025e-09
260,2450.734,1.9020196576101418e-09
261,2461.602,1.916761308767796e-09
262,2472.47,1.98573653031986e-09
263,2483.338,2.053144392075545e-09
264,2494.206,1.992455722248122e-09
265,2505.074,2.0163900397407145e-09
266,2515.942,1.969420186166754e-09
267,2526.81,1.7453052074383782e-09
268,2537.678,1.862863760313713e-09
269,2548.546,1.7904658279730784e-09
270,2559.4139999999998,1.9254095271248063e-09
271,2570.282,1.780014074128637e-09
272,2581.15,1.8253653951988639e-09
273,2592.018,1.6921474831861475e-09
274,2602.886,1.7705242783817777e-09
275,2613.754,1.7469353031883666e-09
276,2624.622,1.7916868303922798e-09
277,2635.49,1.9234987955159704e-09
278,2646.358,1.9009250700026723e-09
279,2657.226,1.987937360455979e-09
280,2668.094,1.9790033243449723e-09
281,2678.962,1.9759932621905454e-09
282,2689.83,1.917203972638663e-09
283,2700.698,1.936075070811524e-09
284,2711.566,1.909236657937827e-09
285,2722.434,2.0536204839991695e-09
286,2731.1284,1.8702577526050976e-09
287,2736.5624,1.8398559375870449e-09
288,2744.17,1.7881869408523259e-09
289,2755.038,1.8093360696987608e-09
290,2765.906,1.8359289161461602e-09
291,2776.774,1.9566100221640588e-09
292,2787.642,1.9369475526527865e-09
293,2798.5099999999998,2.0358432281686866e-09
294,2809.378,2.043046554560906e-09
295,2820.246,2.017397913708918e-09
296,2831.114,1.9572060925411235e-09
297,2841.982,1.940434795064947e-09
298,2852.85,2.0641723273803895e-09
299,2863.718,2.156477592311552e-09
300,2874.586,2.3821884573188353e-09
301,2885.454,2.441167859473828e-09
302,2896.322,2.2928790371654774e-09
303,2907.19,2.358946636514675e-09
304,2918.058,2.3754421920187283e-09
305,2928.926,2.266112278054597e-09
306,2939.794,2.304239740969886e-09
307,2950.662,2.210909511526081e-09
308,2961.5299999999997,2.2100241617368767e-09
309,2972.398,2.3146686227664223e-09
310,2983.266,2.0254853663889328e-09
311,2994.134,2.1096371260298937e-09
312,3005.002,2.2490760154216396e-09
313,3015.87,2.3858956556094596e-09
314,3026.738,2.273971777490537e-09
315,3037.6059999999998,1.906824408918782e-09
316,3048.474,2.008705363457338e-09
317,3059.342,2.476590627830503e-09
318,3070.21,2.5881385314375894e-09
319,3081.078,2.4822794652377894e-09
320,3091.946,2.3727310865856954e-09
321,3102.814,2.2870569324464213e-09
322,3113.682,2.4793762455413925e-09
323,3124.55,2.5258489073392675e-09
324,3135.418,2.5371016054735566e-09
325,3146.286,2.5564814383070504e-09
326,3162.588,2.7768771590388705e-09
327,3184.324,2.7203737582346663e-09
328,3206.06,2.70504762938895e-09
329,3227.796,2.7685898978163497e-09
330,3249.532,2.8167426350662995e-09
331,3271.268,2.872193670577514e-09
332,3293.004,2.9014462419792455e-09
333,3314.74,2.939804385191635e-09
334,3336.476,2.9934462745258385e-09
335,3358.212,3.0448767432634404e-09
336,3379.948,3.0704028279743894e-09
337,3401.6839999999997,3.0599091544665877e-09
338,3423.42,3.1093763403158698e-09
339,3445.156,3.1528451978558176e-09
340,3466.892,3.046886087085806e-09
341,3488.628,3.1506196661509417e-09
342,3510.364,3.059964376221697e-09
343,3532.1,3.2752076084046194e-09
344,3553.836,3.4311438738932073e-09
345,3575.572,3.4530358985653986e-09
346,3597.308,3.473458179291054e-09
347,3619.044,3.4820594814403903e-09
348,3640.7799999999997,3.4544058547227474e-09
349,3662.516,3.3417341613990703e-09
350,3684.252,3.415583419915594e-09
351,3705.988,3.4792579190137816e-09
352,3727.724,3.545736949091474e-09
353,3749.46,3.5922042739558915e-09
354,3771.196,3.6236395118292816e-09
355,3792.932,3.724914780017995e-09
356,3814.668,3.823665247031722e-09
357,3836.404,3.771839919349227e-09
358,3858.14,3.899108601974604e-09
359,3879.8759999999997,3.655082170005107e-09
360,3901.612,3.701212140323445e-09
361,3914.46601832,4.2263160969923125e-09
362,3915.444247,4.182187710633353e-09
363,3916.42280172,4.138044616446483e-09
364,3917.4010304,4.093916230087524e-09
365,3918.3793677599997,4.049782941119268e-09
366,3919.3579224799996,4.005639846932398e-09
367,3920.33615116,3.961511460573419e-09
368,3921.31470588,3.9293443445763824e-09
369,3922.29293456,3.9098144636382805e-09
370,3923.2711632399996,3.890284582700187e-09
371,3924.2497179599995,3.870748192525023e-09
372,3925.22805532,3.851216141841227e-09
373,3926.20650136,3.831681921411747e-09
374,3927.1848387200002,3.812149870727951e-09
375,3928.1630674,3.785758617050814e-09
376,3929.1416221199997,3.756059315726837e-09
377,3930.1198508,3.72636990977201e-09
378,3931.09840552,3.6966706084480336e-09
379,3932.0766342,3.66698120249322e-09
380,3933.05497156,3.6372884980820237e-09
381,3934.0334175999997,3.6075924952144437e-09
382,3935.01175496,3.672882654593625e-09
383,3935.99030968,3.754621116112327e-09
384,3936.9685383600004,3.83633234358126e-09
385,3937.94676704,3.918043571050117e-09
386,3938.92532176,3.99978203256882e-09
387,3939.90355044,4.081493260037714e-09
388,3940.88210516,4.160353295429003e-09
389,3941.8604425199997,4.083687985744806e-09
390,3942.8386712,4.007031192535752e-09
391,3943.81722592,3.930348849901164e-09
392,3944.7954546,3.8536920566921455e-09
393,3945.77400932,3.7770097140575584e-09
394,3946.7522379999996,3.7003529208485754e-09
395,3947.73046668,3.6496754277683377e-09
396,3948.7090214,3.724185105052017e-09
397,3949.6873587600003,3.7986782319853726e-09
398,3950.6658048,3.873179634093856e-09
399,3951.64414216,3.947672761027177e-09
400,3952.62237084,4.022157612785337e-09
401,3953.6009255599997,4.096667290069016e-09
402,3954.57915424,4.13952633199594e-09
403,3955.55770896,4.113377709439231e-09
404,3956.5359376399997,4.087237799217902e-09
405,3957.514275,4.061094984884763e-09
406,3958.49282972,4.034946362328055e-09
407,3959.4710584,4.008806452106713e-09
408,3960.44961312,3.982657829550004e-09
409,3961.4278418,3.96022476959887e-09
410,3962.40607048,3.942414023856339e-09
411,3963.3846252,3.924597341858147e-09
412,3964.36285388,3.9067865961156166e-09
413,3965.3414086000002,3.888969914117416e-09
414,3966.3197459599996,3.871157189623009e-09
415,3967.29797464,3.85334644388047e-09
416,3968.27652936,3.879699104349506e-09
417,3969.25475804,3.940186442988322e-09
418,3970.23331276,4.000693941833323e-09
419,3971.21154144,4.06118128047214e-09
420,3972.1898788,4.1216753391796756e-09
421,3973.16832484,4.1821761179559575e-09
422,3974.1466622000003,4.2426701766635204e-09
423,3975.12521692,4.25812180332911e-09
424,3976.1034455999998,4.251511191953644e-09
425,3977.0816742800002,4.244900580578171e-09
426,3978.060229,4.238287765910388e-09
427,3979.03845768,4.231677154534919e-09
428,3980.0170124,4.2250643398671355e-09
429,3980.99534976,4.218452994060896e-09
430,3981.97357844,4.206825683543583e-09
431,3982.95213316,4.1936684777309475e-09
432,3983.9303618400004,4.180515655705226e-09
433,3984.9089165600003,4.16735844989259e-09
434,3985.88714524,4.154205627866881e-09
435,3986.8654826,4.141051344578855e-09
436,3987.84392864,4.12789560002853e-09
437,3988.8222659999997,4.145226110681084e-09
438,3989.8007120400002,4.167911471448163e-09
439,3990.7790494,4.190594312459504e-09
440,3991.75727808,4.213274633715127e-09
441,3992.7358328,4.235962514237914e-09
442,3993.7140614799996,4.258642835493526e-09
443,3994.6926162,4.281330716016323e-09
444,3995.67084488,4.2457236707701115e-09
445,3996.6491822400003,4.205235760183861e-09
446,3997.62773696,4.16473885428312e-09
447,3998.60596564,4.124255441354151e-09
448,3999.5845203599997,4.0837585354534105e-09
449,4000.5627490399997,4.043275122524423e-09
450,4001.5409777200002,4.002791709595417e-09
451,4002.51953244,3.966679210605046e-09
452,4003.4978698,3.9306511756893465e-09
453,4004.47631584,3.894619138548031e-09
454,4005.4546532,3.8585911036323316e-09
455,4006.43288188,3.822567070942233e-09
456,4007.4114366,3.786531031575317e-09
457,4008.38966528,3.754067468435193e-09
458,4009.36822,3.831290123027195e-09
459,4010.34644868,3.908487048169651e-09
460,4011.3247860399997,3.9856925497952775e-09
461,4012.30334076,4.062915204387314e-09
462,4013.2815694399997,4.140112129529735e-09
463,4014.2601241599996,4.217334784121736e-09
464,4015.23835284,4.292894839536699e-09
465,4016.21658152,4.346098936366637e-09
466,4017.19513624,4.39932076592521e-09
467,4018.1734736,4.452530773664685e-09
468,4019.15191964,4.5057466923137206e-09
469,4020.130257,4.558956700053196e-09
470,4021.10848568,4.612160796883134e-09
471,4022.0870404,4.64964555635178e-09
472,4023.06526908,4.533929416773318e-09
473,4024.0438237999997,4.418174709433595e-09
474,4025.02205248,4.302458569855025e-09
475,4026.0003898399996,4.186729574356178e-09
476,4026.97883588,4.070987722936786e-09
477,4027.95717324,3.9552587274378856e-09
478,4028.93572796,3.8518022847722e-09
479,4029.91395664,3.851839660271442e-09
480,4030.89218532,3.851877035770685e-09
481,4031.8707400400003,3.8519144237270434e-09
482,4032.84896872,3.8519517992262866e-09
483,4033.82752344,3.851989187182645e-09
484,4034.8058608,3.852026566834259e-09
485,4035.7840894799997,3.868560128251483e-09
486,4036.7626441999996,4.022649693254519e-09
487,4037.74087288,4.176687917887252e-09
488,4038.7194276,4.330777482890288e-09
489,4039.69765628,4.484815707522949e-09
490,4040.67599364,4.638871045612378e-09
491,4041.6544396799995,4.792943497158575e-09
492,4042.63277704,5.167523620158251e-09
493,4043.6113317599998,7.60936504034495e-09
494,4044.5895604400002,1.005039287498657e-08
495,4045.56778912,1.249142070962592e-08
496,4046.5463438399997,1.493326212981262e-08
497,4047.5245725199998,1.7374289964453105e-08
498,4048.5031272399997,1.98161313846398e-08
499,4049.4814646,2.2024977075545717e-08
500,4050.45969328,2.1316940734390654e-08
501,4051.438248,2.0608668407342607e-08
502,4052.41647668,1.9900632066187547e-08
503,4053.3950314,1.91923597391395e-08
504,4054.37326008,1.848432339798444e-08
505,4055.3515974399998,1.777620839486516e-08
506,4056.33004348,1.7025445168118482e-08
507,4057.30838084,1.5230105601966085e-08
508,4058.28693556,1.3434367160105393e-08
509,4059.26516424,1.163922703180798e-08
510,4060.2433929199997,9.844086903511403e-09
511,4061.2219476399996,8.04834846165071e-09
512,4062.20017632,6.253208333352463e-09
513,4063.17873104,4.45746989149177e-09
514,4064.1570684,4.469584364972857e-09
515,4065.13529708,4.4950705977488735e-09
516,4066.1138518,4.520565324991983e-09
517,4067.0920804800003,4.5460515577680115e-09
518,4068.0706352,4.571546285011121e-09
519,4069.04886388,4.597032517787138e-09
520,4070.02720124,4.622521582052182e-09
521,4071.0056472799997,4.4337181939754506e-09
522,4071.98398464,4.229785492126264e-09
523,4072.96253936,4.025807481967479e-09
524,4073.94076804,3.821897434273185e-09
525,4074.91899672,3.6179873865788914e-09
526,4075.89755144,3.414009376420107e-09
527,4076.87578012,3.210099328725813e-09
528,4077.85433484,3.43888473568908e-09
529,4078.8326721999997,3.736071717903992e-09
530,4079.81090088,4.0332256866796165e-09
531,4080.7894556,4.330478695773516e-09
532,4081.76768428,4.627632664549002e-09
533,4082.746239,4.924885673642902e-09
