,rest_wave,flux
0,98.8988,6.4241562297856145e-12
1,102.1592,-7.408714311948546e-15
2,104.33279999999999,-1.225506337051699e-16
3,106.5064,5.04399076325584e-16
4,108.67999999999999,7.299142844421027e-17
5,110.8536,-5.737014818974487e-16
6,113.0272,-1.8693096492081147e-16
7,115.2008,4.268803477342111e-16
8,117.3744,-3.6878932036452606e-16
9,119.548,1.5804199886560928e-16
10,123.8952,-1.35582103194115e-16
11,128.2424,-3.0197393276057337e-16
12,131.5028,2.960075422573091e-16
13,135.85,-3.811490354448354e-17
14,138.0236,3.720028524402017e-16
15,139.1104,5.627714893216733e-17
16,142.3708,4.068924651738671e-16
17,143.45759999999999,2.9677483389384007e-16
18,145.6312,8.3841526707174e-16
19,148.8916,6.87978355384476e-16
20,152.152,1.5301290981643663e-15
21,155.4124,2.0792326313672206e-15
22,159.7596,2.088003827609026e-15
23,164.1068,3.2833495879931707e-15
24,168.454,4.281011447651655e-15
25,172.8012,5.939244293633956e-15
26,176.0616,6.652163255709471e-15
27,180.40879999999999,9.727949294385478e-15
28,184.756,1.1356668526701476e-14
29,188.0164,1.0343284997982187e-14
30,192.3636,1.307736699618672e-14
31,195.624,1.7155893114052352e-14
32,197.7976,1.9847440805511246e-14
33,202.1448,1.868158789548373e-14
34,207.5788,2.4855525241286953e-14
35,210.8392,3.0151130393579866e-14
36,215.1864,3.6235710776975196e-14
37,219.5336,3.5554982375736263e-14
38,222.794,3.9535735736485747e-14
39,228.228,4.6121201423528624e-14
40,234.7488,5.147350175637649e-14
41,239.096,4.286670618168515e-14
42,242.3564,5.519310392577787e-14
43,246.7036,6.71179852009353e-14
44,249.964,7.791326666500274e-14
45,254.31119999999999,1.5712758306449378e-13
46,260.832,2.421987552491432e-13
47,267.3528,2.49417539644593e-13
48,273.8736,3.3124532098834943e-13
49,279.3076,2.889323639882603e-13
50,282.568,3.351070770610586e-13
51,286.91519999999997,4.059353831015505e-13
52,292.3492,3.9081017325439276e-13
53,297.7832,4.2027916836207443e-13
54,303.2172,3.9336909382059737e-13
55,308.6512,4.3521683218109026e-13
56,315.17199999999997,4.536884141121639e-13
57,321.6928,4.234024160830087e-13
58,327.1268,4.5336290346143866e-13
59,334.7344,3.943177038623547e-13
60,345.6024,5.158344662917817e-13
61,356.4704,5.629052797763427e-13
62,367.3384,5.053506627764883e-13
63,378.2064,5.215229499565271e-13
64,387.9876,5.351997144140293e-13
65,397.7688,5.879155708766929e-13
66,407.55,5.655449835373975e-13
67,418.418,5.264569460341575e-13
68,429.286,5.95118399479158e-13
69,440.154,6.029174586550438e-13
70,449.9352,5.907266610367261e-13
71,458.6296,5.829692499808708e-13
72,467.324,5.873222818045878e-13
73,479.2788,5.684538520247142e-13
74,490.1468,5.980772011839452e-13
75,499.928,5.866207117094236e-13
76,510.796,5.90735866749945e-13
77,521.664,5.798302113885193e-13
78,532.532,5.793881345334939e-13
79,543.4,5.873369128922411e-13
80,549.9208,5.758792362575624e-13
81,556.4416,5.560941195253272e-13
82,565.136,5.912103126439165e-13
83,576.004,5.845166466392939e-13
84,586.872,5.503308821326149e-13
85,597.74,5.286072452420603e-13
86,608.608,5.754512514693925e-13
87,619.476,5.648772377057736e-13
88,630.3439999999999,5.609318831100512e-13
89,641.212,5.64699602104534e-13
90,652.08,5.522091465491803e-13
91,662.948,5.442455677033157e-13
92,673.816,5.553252615210611e-13
93,684.684,5.471279262499167e-13
94,695.552,5.417542048071032e-13
95,706.42,5.476266859166188e-13
96,715.1144,5.417809165905451e-13
97,722.722,5.404356208389507e-13
98,733.59,5.45725393784008e-13
99,744.458,5.260206061195149e-13
100,755.326,5.439035110179154e-13
101,766.194,5.427485683033065e-13
102,778.1487999999999,5.528577176837208e-13
103,789.0168,5.538762407054697e-13
104,798.798,5.554806777974288e-13
105,809.6659999999999,5.579820275490093e-13
106,820.534,5.587082223802123e-13
107,831.402,5.050081681502927e-13
108,842.27,5.796648843063252e-13
109,853.138,5.65613673940478e-13
110,864.006,6.033010167897679e-13
111,874.874,6.17728746476154e-13
112,885.742,6.270607813336932e-13
113,896.61,6.397803383585485e-13
114,907.478,6.312164983678039e-13
115,918.346,6.741934517740706e-13
116,929.2139999999999,6.912473412681751e-13
117,940.082,7.266055847982395e-13
118,950.95,8.106572147990642e-13
119,961.818,1.0039959724857315e-12
120,972.686,1.3879728800837812e-12
121,983.554,3.320009413775452e-11
122,994.422,8.456443711611282e-10
123,1005.29,7.465933722815421e-10
124,1016.158,9.70055115796593e-10
125,1027.026,8.699866721629631e-10
126,1037.894,9.123230458043495e-10
127,1048.762,9.421080956995018e-10
128,1059.6299999999999,6.291215924162418e-10
129,1070.498,6.45750430864723e-10
130,1081.366,1.0027335230385995e-09
131,1092.234,1.0296092018583602e-09
132,1103.102,9.84240440360417e-10
133,1113.97,8.101431044074629e-10
134,1124.838,8.875015590675617e-10
135,1135.706,1.2143468463403066e-09
136,1146.574,1.2541673232099983e-09
137,1157.442,1.1703403944013133e-09
138,1168.31,1.1448987725022217e-09
139,1179.1779999999999,1.0853405989003873e-09
140,1190.046,1.2629975528745222e-09
141,1200.914,1.2629316009525485e-09
142,1211.782,1.1267955946023774e-09
143,1222.65,9.492358754978666e-10
144,1233.518,1.3182465030244556e-09
145,1244.386,1.282699645786422e-09
146,1255.254,1.0482882676163246e-09
147,1266.122,1.135645838348547e-09
148,1276.99,1.3343335272468686e-09
149,1287.858,1.9534303576463422e-09
150,1298.7259999999999,2.3912676011230774e-09
151,1309.594,2.8864456478925667e-09
152,1320.462,3.0405836676961186e-09
153,1331.33,2.958887479172419e-09
154,1342.198,2.484886159062869e-09
155,1353.066,2.125964848485513e-09
156,1363.934,1.6042903015504797e-09
157,1374.802,1.3927350102070669e-09
158,1385.67,1.4702853509781703e-09
159,1396.538,1.3840756495209622e-09
160,1407.406,1.3376405848224477e-09
161,1418.274,1.389304930221613e-09
162,1429.142,1.443331546547641e-09
163,1440.01,1.4471537481507876e-09
164,1450.878,1.4681153638542657e-09
165,1461.746,1.4387393966825555e-09
166,1472.614,1.5529425977690832e-09
167,1483.482,1.4853508247589731e-09
168,1494.35,1.5530505237441044e-09
169,1505.218,1.5120557214737083e-09
170,1516.086,1.5610594122899313e-09
171,1526.954,1.669045992913488e-09
172,1537.822,1.504865027637023e-09
173,1548.69,1.4758209941451638e-09
174,1559.558,1.5331453398852386e-09
175,1567.1656,1.6104933517289236e-09
176,1572.5996,1.634115022886851e-09
177,1581.294,1.632298810269214e-09
178,1592.162,1.558537029333663e-09
179,1603.03,1.573862914540672e-09
180,1613.898,1.5531505312432775e-09
181,1624.766,1.631596578301736e-09
182,1635.634,1.6014805835251468e-09
183,1643.2416,1.5127674903975675e-09
184,1648.6756,1.5553572916110565e-09
185,1657.37,1.4557371775652702e-09
186,1668.238,1.4393706481917664e-09
187,1679.106,1.3318958219666007e-09
188,1689.974,1.556356631567721e-09
189,1700.8419999999999,1.3429397714943522e-09
190,1711.71,1.5728893971357446e-09
191,1722.578,1.4980957079432044e-09
192,1733.446,1.6910754681743789e-09
193,1744.314,1.681894679821028e-09
194,1755.182,1.6747504749670236e-09
195,1766.05,1.6256677762691374e-09
196,1776.918,1.678921065639414e-09
197,1787.786,1.7105747021857243e-09
198,1798.654,1.5996811951112319e-09
199,1809.522,1.7146986204016298e-09
200,1817.1296,1.5942562731957562e-09
201,1822.5636,1.7409076721606056e-09
202,1831.258,1.8144448081370949e-09
203,1842.126,1.747231670539831e-09
204,1852.994,1.7217363207793154e-09
205,1863.862,1.7227897540363479e-09
206,1874.73,1.7265648467048871e-09
207,1885.598,1.7920409614914131e-09
208,1896.466,1.7795973291813938e-09
209,1907.334,1.8494145121935384e-09
210,1918.202,1.7274660368490242e-09
211,1929.07,1.815068546752393e-09
212,1939.9379999999999,1.8368007126579312e-09
213,1950.806,1.9309598246931988e-09
214,1961.674,1.9061614170456567e-09
215,1972.542,1.876874682702837e-09
216,1983.41,1.8576818758732665e-09
217,1994.278,1.821617549717737e-09
218,2005.146,1.7385164550623933e-09
219,2016.014,1.7749695845596519e-09
220,2026.882,1.820603058826253e-09
221,2037.75,1.8718076655352456e-09
222,2048.618,1.847731724359119e-09
223,2059.486,1.8468668313668785e-09
224,2070.354,1.8550039498225587e-09
225,2081.2219999999998,1.871563157248148e-09
226,2092.09,1.864971356112064e-09
227,2102.958,1.827680758982125e-09
228,2113.826,1.9275604871114748e-09
229,2124.694,1.9095844930918393e-09
230,2137.7356,1.9880929343950194e-09
231,2147.5168,1.9910827059062745e-09
232,2156.2112,1.955951199470934e-09
233,2168.166,1.9232562653784575e-09
234,2179.034,1.9179254737818583e-09
235,2189.902,1.89688139073076e-09
236,2200.77,1.904352449147567e-09
237,2211.638,1.930218293403231e-09
238,2222.506,1.985447490639099e-09
239,2233.374,1.959510151046179e-09
240,2244.242,1.9611247626700497e-09
241,2254.0232,2.047557441610604e-09
242,2258.3704,2.0531626959908086e-09
243,2265.978,2.0602870546729985e-09
244,2276.846,2.008451957077835e-09
245,2287.714,1.9886114395054718e-09
246,2298.582,2.007268297105227e-09
247,2309.45,2.0230886361669687e-09
248,2320.3179999999998,1.903044626162027e-09
249,2331.186,1.997981351823517e-09
250,2342.054,2.019258669887728e-09
251,2352.922,1.96811511466521e-09
252,2363.79,1.957282848616814e-09
253,2374.658,1.9853510927989034e-09
254,2385.526,2.054901846760138e-09
255,2396.394,2.0162345373850345e-09
256,2407.262,1.9346328719051997e-09
257,2418.13,1.9264334693217085e-09
258,2428.998,2.0533806368075892e-09
259,2439.866,1.9649104669423234e-09
260,2450.734,1.9168034480476454e-09
261,2461.602,1.9275071726097487e-09
262,2472.47,1.997460915503702e-09
263,2483.338,2.062590292747227e-09
264,2494.206,2.0088847779206966e-09
265,2505.074,2.0387928417454024e-09
266,2515.942,2.0074282832107435e-09
267,2526.81,1.8046853681727365e-09
268,2537.678,1.923016121093138e-09
269,2548.546,1.843394550829532e-09
270,2559.4139999999998,1.9636933248319075e-09
271,2570.282,1.8265057521474287e-09
272,2581.15,1.868023615275573e-09
273,2592.018,1.7397316283953912e-09
274,2602.886,1.817067571437536e-09
275,2613.754,1.793078038148371e-09
276,2624.622,1.8327452057654855e-09
277,2635.49,1.95216645749799e-09
278,2646.358,1.928264803571967e-09
279,2657.226,2.013379066026921e-09
280,2668.094,2.0035353538808647e-09
281,2678.962,2.0025242678709955e-09
282,2689.83,1.9474986888688573e-09
283,2700.698,1.9690815488663916e-09
284,2711.566,1.9439743158496635e-09
285,2722.434,2.0768022988766275e-09
286,2731.1284,1.9157174586368377e-09
287,2736.5624,1.8884567922152777e-09
288,2744.17,1.8327173234286615e-09
289,2755.038,1.848329556368434e-09
290,2765.906,1.8744641773709596e-09
291,2776.774,1.9922432460128008e-09
292,2787.642,1.9797609644846527e-09
293,2798.5099999999998,2.075754797553258e-09
294,2809.378,2.0865804883409354e-09
295,2820.246,2.0651815300318643e-09
296,2831.114,2.0081817345260966e-09
297,2841.982,1.9945412823589036e-09
298,2852.85,2.1080611128241526e-09
299,2863.718,2.1926905598765175e-09
300,2874.586,2.408428387327978e-09
301,2885.454,2.4651000441467824e-09
302,2896.322,2.3353947757157408e-09
303,2907.19,2.3943223558400332e-09
304,2918.058,2.413986569842307e-09
305,2928.926,2.3045333486927146e-09
306,2939.794,2.335198544661973e-09
307,2950.662,2.24565670830864e-09
308,2961.5299999999997,2.242484362007128e-09
309,2972.398,2.3459179559586392e-09
310,2983.266,2.083661796727316e-09
311,2994.134,2.16616402974597e-09
312,3005.002,2.3103427413334676e-09
313,3015.87,2.453423760088846e-09
314,3026.738,2.369879883513965e-09
315,3037.6059999999998,2.0129486484849436e-09
316,3048.474,2.1170410497470745e-09
317,3059.342,2.5590601294186616e-09
318,3070.21,2.6305689170977186e-09
319,3081.078,2.518954380774779e-09
320,3091.946,2.401195867331306e-09
321,3102.814,2.3174913345901083e-09
322,3113.682,2.49756181903059e-09
323,3124.55,2.5469661368661077e-09
324,3135.418,2.5612735251003234e-09
325,3146.286,2.582949128671693e-09
326,3162.588,2.7882431408401585e-09
327,3184.324,2.7380636990989934e-09
328,3206.06,2.7252482091594666e-09
329,3227.796,2.7793252842345165e-09
330,3249.532,2.825538054751694e-09
331,3271.268,2.8756662084676873e-09
332,3293.004,2.9079652439918592e-09
333,3314.74,2.947097374736696e-09
334,3336.476,2.988042177514319e-09
335,3358.212,3.031978319033248e-09
336,3379.948,3.0608295194596476e-09
337,3401.6839999999997,3.0492764907654096e-09
338,3423.42,3.0892515271706732e-09
339,3445.156,3.1370102698752085e-09
340,3466.892,3.043738802632074e-09
341,3488.628,3.1407490056167946e-09
342,3510.364,3.060971189369984e-09
343,3532.1,3.2693630169936362e-09
344,3553.836,3.418927008452433e-09
345,3575.572,3.4395506647610525e-09
346,3597.308,3.4510392836470093e-09
347,3619.044,3.4603147587584546e-09
348,3640.7799999999997,3.4307251637635508e-09
349,3662.516,3.314242877995519e-09
350,3684.252,3.3927492272544374e-09
351,3705.988,3.4621355199827484e-09
352,3727.724,3.5358875816600115e-09
353,3749.46,3.5822603335143244e-09
354,3771.196,3.617261211628255e-09
355,3792.932,3.7162433986554215e-09
356,3814.668,3.812631546029514e-09
357,3836.404,3.7635338894149685e-09
358,3858.14,3.888551476530696e-09
359,3879.8759999999997,3.6554809592171633e-09
360,3901.612,3.697070713587623e-09
361,3914.46601832,4.232599724912809e-09
362,3915.444247,4.188317035825716e-09
363,3916.42280172,4.1440195874821825e-09
364,3917.4010304,4.099736898395089e-09
365,3918.3793677599997,4.055449289555856e-09
366,3919.3579224799996,4.011151841212323e-09
367,3920.33615116,3.966869152125208e-09
368,3921.31470588,3.9333384680320285e-09
369,3922.29293456,3.9111705744613644e-09
370,3923.2711632399996,3.88900268089071e-09
371,3924.2497179599995,3.866827398843134e-09
372,3925.22805532,3.844657042446825e-09
373,3926.20650136,3.822484223224882e-09
374,3927.1848387200002,3.8003138668285736e-09
375,3928.1630674,3.775367154453947e-09
376,3929.1416221199997,3.7490759484247565e-09
377,3930.1198508,3.722793502237631e-09
378,3931.09840552,3.6965022962084408e-09
379,3932.0766342,3.6702198500213273e-09
380,3933.05497156,3.643934483886859e-09
381,3934.0334175999997,3.617646197805036e-09
382,3935.01175496,3.682243318853263e-09
383,3935.99030968,3.762579146891705e-09
384,3936.9685383600004,3.842888208217165e-09
385,3937.94676704,3.92319726954255e-09
386,3938.92532176,4.003533097580993e-09
387,3939.90355044,4.0838421589064155e-09
388,3940.88210516,4.161363601723718e-09
389,3941.8604425199997,4.08681982582413e-09
390,3942.8386712,4.012284330726081e-09
391,3943.81722592,3.9377239932233096e-09
392,3944.7954546,3.8631884981252945e-09
393,3945.77400932,3.788628160622523e-09
394,3946.7522379999996,3.7140926655245435e-09
395,3947.73046668,3.663917077685073e-09
396,3948.7090214,3.731124361526375e-09
397,3949.6873587600003,3.798316717050546e-09
398,3950.6658048,3.865516536733251e-09
399,3951.64414216,3.93270889225739e-09
400,3952.62237084,3.999893783622965e-09
401,3953.6009255599997,4.067101067464267e-09
402,3954.57915424,4.106956019783662e-09
403,3955.55770896,4.087177856807639e-09
404,3956.5359376399997,4.067406283623818e-09
405,3957.514275,4.047632513842583e-09
406,3958.49282972,4.02785435086656e-09
407,3959.4710584,4.008082777682729e-09
408,3960.44961312,3.988304614706706e-09
409,3961.4278418,3.9701214943764515e-09
410,3962.40607048,3.953919119870702e-09
411,3963.3846252,3.937711345173474e-09
412,3964.36285388,3.921508970667725e-09
413,3965.3414086000002,3.905301195970489e-09
414,3966.3197459599996,3.889097021400924e-09
415,3967.29797464,3.872894646895167e-09
416,3968.27652936,3.8980417336974386e-09
417,3969.25475804,3.955148271083896e-09
418,3970.23331276,4.0122738418679885e-09
419,3971.21154144,4.069380379254446e-09
420,3972.1898788,4.126493261106773e-09
421,3973.16832484,4.183612487424996e-09
422,3974.1466622000003,4.24072536927735e-09
423,3975.12521692,4.254055655398061e-09
424,3976.1034455999998,4.245941530547565e-09
425,3977.0816742800002,4.237827405697061e-09
426,3978.060229,4.229710576438769e-09
427,3979.03845768,4.221596451588269e-09
428,3980.0170124,4.213479622329976e-09
429,3980.99534976,4.2053645960102125e-09
430,3981.97357844,4.196163220713919e-09
431,3982.95213316,4.186628050034603e-09
432,3983.9303618400004,4.177096056333517e-09
433,3984.9089165600003,4.1675608856542e-09
434,3985.88714524,4.158028891953123e-09
435,3986.8654826,4.148495839259295e-09
436,3987.84392864,4.138961727572726e-09
437,3988.8222659999997,4.156168589302724e-09
438,3989.8007120400002,4.1780727117374334e-09
439,3990.7790494,4.199974401191738e-09
440,3991.75727808,4.221873657665659e-09
441,3992.7358328,4.2437802130807414e-09
442,3993.7140614799996,4.265679469554653e-09
443,3994.6926162,4.287586024969746e-09
444,3995.67084488,4.253957574661462e-09
445,3996.6491822400003,4.215679379821077e-09
446,3997.62773696,4.177392680605048e-09
447,3998.60596564,4.139118737952521e-09
448,3999.5845203599997,4.100832038736492e-09
449,4000.5627490399997,4.062558096083947e-09
450,4001.5409777200002,4.024284153431384e-09
451,4002.51953244,3.988178762340848e-09
452,4003.4978698,3.952119422464835e-09
453,4004.47631584,3.91605607688565e-09
454,4005.4546532,3.879996737009638e-09
455,4006.43288188,3.843941402836782e-09
456,4007.4114366,3.80787405155444e-09
457,4008.38966528,3.775345023312685e-09
458,4009.36822,3.851449619760879e-09
459,4010.34644868,3.927528859280013e-09
460,4011.3247860399997,4.0036165511088216e-09
461,4012.30334076,4.079721147557052e-09
462,4013.2815694399997,4.15580038707615e-09
463,4014.2601241599996,4.231904983524345e-09
464,4015.23835284,4.306268323544517e-09
465,4016.21658152,4.357196336067036e-09
466,4017.19513624,4.408141322707711e-09
467,4018.1734736,4.459074993269607e-09
468,4019.15191964,4.510014321870905e-09
469,4020.130257,4.5609479924328015e-09
470,4021.10848568,4.611876004955321e-09
471,4022.0870404,4.647852054406408e-09
472,4023.06526908,4.5381048971292955e-09
473,4024.0438237999997,4.428321161530643e-09
474,4025.02205248,4.318574004253428e-09
475,4026.0003898399996,4.208814654202503e-09
476,4026.97883588,4.099043111377612e-09
477,4027.95717324,3.989283761326636e-09
478,4028.93572796,3.890999281903478e-09
479,4029.91395664,3.889485225667253e-09
480,4030.89218532,3.887971169431027e-09
481,4031.8707400400003,3.8864566085654585e-09
482,4032.84896872,3.8849425523292335e-09
483,4033.82752344,3.8834279914636655e-09
484,4034.8058608,3.881913767017659e-09
485,4035.7840894799997,3.896779583675825e-09
486,4036.7626441999996,4.048230992742639e-09
487,4037.74087288,4.1996319404337965e-09
488,4038.7194276,4.35108334950061e-09
489,4039.69765628,4.502484297191697e-09
490,4040.67599364,4.653902065341336e-09
491,4041.6544396799995,4.805336653949527e-09
492,4042.63277704,5.192012149739037e-09
493,4043.6113317599998,7.784056814903896e-09
494,4044.5895604400002,1.0375237849017883e-08
495,4045.56778912,1.296641888312946e-08
496,4046.5463438399997,1.5558463548294318e-08
497,4047.5245725199998,1.8149644582407102e-08
498,4048.5031272399997,2.074168924757196e-08
499,4049.4814646,2.3087183041489675e-08
500,4050.45969328,2.2346119276019078e-08
501,4051.438248,2.1604808516737167e-08
502,4052.41647668,2.0863744751266574e-08
503,4053.3950314,2.0122433991984662e-08
504,4054.37326008,1.938137022651407e-08
505,4055.3515974399998,1.864022412977315e-08
506,4056.33004348,1.785340798431393e-08
507,4057.30838084,1.5947953770561535e-08
508,4058.28693556,1.4042076216615751e-08
509,4059.26516424,1.2136833672960938e-08
510,4060.2433929199997,1.0231591129307011e-08
511,4061.2219476399996,8.325713575361225e-09
512,4062.20017632,6.420471031705529e-09
513,4063.17873104,4.514593477759743e-09
514,4064.1570684,4.520045299805866e-09
515,4065.13529708,4.539635048436941e-09
516,4066.1138518,4.559231326258759e-09
517,4067.0920804800003,4.578821074889844e-09
518,4068.0706352,4.598417352711662e-09
519,4069.04886388,4.618007101342737e-09
520,4070.02720124,4.637599026370723e-09
521,4071.0056472799997,4.458320220382725e-09
522,4071.98398464,4.265001376515941e-09
523,4072.96253936,4.07163958245064e-09
524,4073.94076804,3.878342213683205e-09
525,4074.91899672,3.685044844915771e-09
526,4075.89755144,3.491683050850469e-09
527,4076.87578012,3.2983856820830344e-09
528,4077.85433484,3.5219956849086252e-09
529,4078.8326721999997,3.811510571561796e-09
530,4079.81090088,4.1009932970413455e-09
531,4080.7894556,4.3905725060421636e-09
532,4081.76768428,4.680055231521579e-09
533,4082.746239,4.969634440522396e-09
