,rest_wave,flux
0,98.8988,7.719528632317888e-12
1,102.1592,-8.193844063081043e-15
2,104.33279999999999,7.359023332420822e-16
3,106.5064,2.000230715215611e-15
4,108.67999999999999,2.5055334176255157e-15
5,110.8536,1.0678421760760112e-15
6,113.0272,2.9417620193022887e-15
7,115.2008,5.248692791890796e-15
8,117.3744,5.0794478832377886e-15
9,119.548,7.733147562503296e-15
10,123.8952,5.924837601684043e-15
11,128.2424,8.941964852323481e-15
12,131.5028,1.532722265136541e-14
13,135.85,1.8746983873003412e-14
14,138.0236,1.7853378914245937e-14
15,139.1104,1.7739680460098547e-14
16,142.3708,2.0852609531923403e-14
17,143.45759999999999,2.349375719432227e-14
18,145.6312,2.3268469555159956e-14
19,148.8916,2.6168816337955316e-14
20,152.152,3.230570373380986e-14
21,155.4124,3.6935170703997865e-14
22,159.7596,3.306398481668086e-14
23,164.1068,3.940497926376615e-14
24,168.454,4.3911754692437754e-14
25,172.8012,5.081717210594747e-14
26,176.0616,5.225795457683723e-14
27,180.40879999999999,6.298294524935182e-14
28,184.756,6.548994597790488e-14
29,188.0164,5.398269198440632e-14
30,192.3636,6.322325388209488e-14
31,195.624,7.603390227412241e-14
32,197.7976,8.038413268522616e-14
33,202.1448,7.305569799253119e-14
34,207.5788,8.42992897326402e-14
35,210.8392,9.664789190641131e-14
36,215.1864,1.0587917130344147e-13
37,219.5336,9.962517188737142e-14
38,222.794,1.0698276977103588e-13
39,228.228,1.1594014959250005e-13
40,234.7488,1.2321504211469667e-13
41,239.096,1.0387740439835365e-13
42,242.3564,1.2384108554998812e-13
43,246.7036,1.3812232459646602e-13
44,249.964,1.6561666162591881e-13
45,254.31119999999999,3.5261248727101367e-13
46,260.832,5.574449123909682e-13
47,267.3528,5.474091687155607e-13
48,273.8736,6.998090222906949e-13
49,279.3076,5.64013135236585e-13
50,282.568,6.711280993000138e-13
51,286.91519999999997,7.794884806330383e-13
52,292.3492,7.451008306872018e-13
53,297.7832,7.864422103625592e-13
54,303.2172,7.368283163263168e-13
55,308.6512,7.830664594048779e-13
56,315.17199999999997,7.918708674084594e-13
57,321.6928,7.339291423681221e-13
58,327.1268,7.447974071664136e-13
59,334.7344,6.522514448553036e-13
60,345.6024,8.32655781484419e-13
61,356.4704,8.674014614529245e-13
62,367.3384,7.785644742587549e-13
63,378.2064,7.9663157372247e-13
64,387.9876,7.95607889051608e-13
65,397.7688,8.471876168326774e-13
66,407.55,8.254654690351701e-13
67,418.418,7.688660675755687e-13
68,429.286,8.361803854488131e-13
69,440.154,8.402041006528259e-13
70,449.9352,8.254557577135427e-13
71,458.6296,8.101469542523268e-13
72,467.324,8.149165524479993e-13
73,479.2788,7.791064917986803e-13
74,490.1468,8.123567095987658e-13
75,499.928,7.968875354671424e-13
76,510.796,8.05089456083877e-13
77,521.664,7.859046976868423e-13
78,532.532,7.799572079035504e-13
79,543.4,7.871643398785204e-13
80,549.9208,7.778275893205404e-13
81,556.4416,7.572057524362672e-13
82,565.136,7.941162961336454e-13
83,576.004,7.807781915063683e-13
84,586.872,7.314160405167151e-13
85,597.74,7.086030552089216e-13
86,608.608,7.704617608514393e-13
87,619.476,7.61677525915469e-13
88,630.3439999999999,7.512913067697622e-13
89,641.212,7.608625081402922e-13
90,652.08,7.387617766701899e-13
91,662.948,7.5161929999321e-13
92,673.816,7.477882759492077e-13
93,684.684,7.421228163952611e-13
94,695.552,7.288849981619635e-13
95,706.42,7.378147376363508e-13
96,715.1144,7.320307009583583e-13
97,722.722,7.279676440618717e-13
98,733.59,7.388761152261189e-13
99,744.458,7.454874875630835e-13
100,755.326,7.3812578667472e-13
101,766.194,7.453134822627406e-13
102,778.1487999999999,7.545915429479337e-13
103,789.0168,7.567460983217335e-13
104,798.798,7.604761340060403e-13
105,809.6659999999999,7.653171210021516e-13
106,820.534,7.628295966191471e-13
107,831.402,7.215759405887626e-13
108,842.27,7.958333202663946e-13
109,853.138,7.632079956892912e-13
110,864.006,8.314318317377869e-13
111,874.874,8.502452773213683e-13
112,885.742,8.617354333838922e-13
113,896.61,8.865438707339043e-13
114,907.478,8.940126665381408e-13
115,918.346,9.339607179921394e-13
116,929.2139999999999,9.513644381766602e-13
117,940.082,1.0030103444888146e-12
118,950.95,1.10564546513002e-12
119,961.818,1.335506722213699e-12
120,972.686,1.7885509676593543e-12
121,983.554,3.494981666693916e-11
122,994.422,8.798097369692241e-10
123,1005.29,7.833114236080452e-10
124,1016.158,1.0073250587110173e-09
125,1027.026,9.184855949286433e-10
126,1037.894,9.86935722452238e-10
127,1048.762,1.0070931358757387e-09
128,1059.6299999999999,6.633916081014368e-10
129,1070.498,7.477598676102411e-10
130,1081.366,1.078130291656286e-09
131,1092.234,1.117916295320214e-09
132,1103.102,1.0533097743027751e-09
133,1113.97,8.493840992054822e-10
134,1124.838,9.544885557028229e-10
135,1135.706,1.2884109321429414e-09
136,1146.574,1.3309828572882435e-09
137,1157.442,1.2521755076456376e-09
138,1168.31,1.2236277467668657e-09
139,1179.1779999999999,1.1766881863667773e-09
140,1190.046,1.3452794279607265e-09
141,1200.914,1.3451802520902167e-09
142,1211.782,1.246310159017993e-09
143,1222.65,1.0463234811770453e-09
144,1233.518,1.395410340526163e-09
145,1244.386,1.3575252672614827e-09
146,1255.254,1.1528913444730883e-09
147,1266.122,1.266694533346913e-09
148,1276.99,1.4798403910998322e-09
149,1287.858,2.1962429170693343e-09
150,1298.7259999999999,2.7816898876504326e-09
151,1309.594,3.4147083017892437e-09
152,1320.462,3.628157442657913e-09
153,1331.33,3.528030907010869e-09
154,1342.198,2.887577377422977e-09
155,1353.066,2.402449439850766e-09
156,1363.934,1.7784083762973327e-09
157,1374.802,1.4961436106904306e-09
158,1385.67,1.547105550765588e-09
159,1396.538,1.470870369071895e-09
160,1407.406,1.4199192927196091e-09
161,1418.274,1.4725803278700746e-09
162,1429.142,1.540533699263008e-09
163,1440.01,1.5453017027241388e-09
164,1450.878,1.5493012657124862e-09
165,1461.746,1.5344441524621467e-09
166,1472.614,1.6316226455646681e-09
167,1483.482,1.5738777837572675e-09
168,1494.35,1.632886453675756e-09
169,1505.218,1.6160474150882651e-09
170,1516.086,1.659950616984827e-09
171,1526.954,1.7331939439770419e-09
172,1537.822,1.6043519165765201e-09
173,1548.69,1.5830239316040303e-09
174,1559.558,1.6276539378951844e-09
175,1567.1656,1.6959051953770014e-09
176,1572.5996,1.7179367928504943e-09
177,1581.294,1.7150364833694137e-09
178,1592.162,1.652681559549933e-09
179,1603.03,1.6609220301574927e-09
180,1613.898,1.6445790154740408e-09
181,1624.766,1.7098885088733663e-09
182,1635.634,1.6884358939855528e-09
183,1643.2416,1.615602330686428e-09
184,1648.6756,1.6493730702887087e-09
185,1657.37,1.5610272736107827e-09
186,1668.238,1.5492886228055768e-09
187,1679.106,1.4339682921607335e-09
188,1689.974,1.6454982980160865e-09
189,1700.8419999999999,1.4540963433319433e-09
190,1711.71,1.6632492291503568e-09
191,1722.578,1.5923979106102759e-09
192,1733.446,1.7629747711046349e-09
193,1744.314,1.747049765834954e-09
194,1755.182,1.7438176198577905e-09
195,1766.05,1.7003143892022062e-09
196,1776.918,1.7483372444356374e-09
197,1787.786,1.7757927399044366e-09
198,1798.654,1.6740462943368077e-09
199,1809.522,1.78475021401851e-09
200,1817.1296,1.679026035778011e-09
201,1822.5636,1.7975690576321864e-09
202,1831.258,1.8622384859342285e-09
203,1842.126,1.8034024234477676e-09
204,1852.994,1.7815019360101827e-09
205,1863.862,1.7827266619916961e-09
206,1874.73,1.7850376927419901e-09
207,1885.598,1.8433959831857787e-09
208,1896.466,1.829904884859512e-09
209,1907.334,1.8901537711564392e-09
210,1918.202,1.7815805384433523e-09
211,1929.07,1.8611766879360507e-09
212,1939.9379999999999,1.8809702128984213e-09
213,1950.806,1.958766685341065e-09
214,1961.674,1.9409259715582055e-09
215,1972.542,1.9135111946500997e-09
216,1983.41,1.8972063629827635e-09
217,1994.278,1.8697797199848846e-09
218,2005.146,1.7939130592210956e-09
219,2016.014,1.823156023116374e-09
220,2026.882,1.8648937816911584e-09
221,2037.75,1.91799277420712e-09
222,2048.618,1.9009644940259554e-09
223,2059.486,1.903626052601623e-09
224,2070.354,1.921319702575474e-09
225,2081.2219999999998,1.929995560548636e-09
226,2092.09,1.9181231297869498e-09
227,2102.958,1.882976347604454e-09
228,2113.826,1.962303824732118e-09
229,2124.694,1.9395081836730904e-09
230,2137.7356,2.006179331801749e-09
231,2147.5168,2.0080640590763934e-09
232,2156.2112,1.9766184213540654e-09
233,2168.166,1.946988767747583e-09
234,2179.034,1.9441366344231253e-09
235,2189.902,1.9282994132352607e-09
236,2200.77,1.9347784691348644e-09
237,2211.638,1.9568283826540396e-09
238,2222.506,2.002942984880811e-09
239,2233.374,1.9804148805696173e-09
240,2244.242,1.9847562340889767e-09
241,2254.0232,2.058235725973012e-09
242,2258.3704,2.0604675023039793e-09
243,2265.978,2.0692560065798093e-09
244,2276.846,2.0228353879854367e-09
245,2287.714,2.0119214088976206e-09
246,2298.582,2.0290008800821516e-09
247,2309.45,2.0420641295333124e-09
248,2320.3179999999998,1.9404328486154446e-09
249,2331.186,2.021964306576824e-09
250,2342.054,2.039398026649696e-09
251,2352.922,1.993806419319857e-09
252,2363.79,1.984789049913283e-09
253,2374.658,2.010864888074004e-09
254,2385.526,2.074271066982387e-09
255,2396.394,2.0390947834593194e-09
256,2407.262,1.9677923121965298e-09
257,2418.13,1.9632883607014354e-09
258,2428.998,2.077298931733169e-09
259,2439.866,1.999179345737528e-09
260,2450.734,1.95633255980697e-09
261,2461.602,1.963074153820655e-09
262,2472.47,2.0282909168400743e-09
263,2483.338,2.0874704840751385e-09
264,2494.206,2.0410147968422947e-09
265,2505.074,2.075362519155539e-09
266,2515.942,2.0555612597069098e-09
267,2526.81,1.8798816445234473e-09
268,2537.678,1.9883980008151307e-09
269,2548.546,1.908944714394775e-09
270,2559.4139999999998,2.0107704875564725e-09
271,2570.282,1.8886847820212e-09
272,2581.15,1.92474720296904e-09
273,2592.018,1.8081263124691496e-09
274,2602.886,1.878602833799806e-09
275,2613.754,1.8565302706564807e-09
276,2624.622,1.891061247029934e-09
277,2635.49,1.997427647443154e-09
278,2646.358,1.975162835114813e-09
279,2657.226,2.0548456076991565e-09
280,2668.094,2.0489612363305772e-09
281,2678.962,2.0485248634854806e-09
282,2689.83,1.9987985351924034e-09
283,2700.698,2.014406275846163e-09
284,2711.566,1.9902735689846866e-09
285,2722.434,2.1070046673557168e-09
286,2731.1284,1.9647619832819026e-09
287,2736.5624,1.9388304867897153e-09
288,2744.17,1.886783330243135e-09
289,2755.038,1.902206597524786e-09
290,2765.906,1.9273730189685913e-09
291,2776.774,2.0369845571802515e-09
292,2787.642,2.0267323875951942e-09
293,2798.5099999999998,2.113851879970002e-09
294,2809.378,2.1243168166635743e-09
295,2820.246,2.106801778129216e-09
296,2831.114,2.0541052503386517e-09
297,2841.982,2.042248863421585e-09
298,2852.85,2.1424822176135014e-09
299,2863.718,2.2254918462442308e-09
300,2874.586,2.426266587269503e-09
301,2885.454,2.4841395913327833e-09
302,2896.322,2.3732693254060135e-09
303,2907.19,2.4246636406974227e-09
304,2918.058,2.4457651348209872e-09
305,2928.926,2.337034100068936e-09
306,2939.794,2.3604080751389696e-09
307,2950.662,2.275038172064498e-09
308,2961.5299999999997,2.2686567500007636e-09
309,2972.398,2.362950082748838e-09
310,2983.266,2.128398056391143e-09
311,2994.134,2.206517086603264e-09
312,3005.002,2.3435741286487157e-09
313,3015.87,2.472149618868236e-09
314,3026.738,2.396369537087298e-09
315,3037.6059999999998,2.06515659187256e-09
316,3048.474,2.163921673278702e-09
317,3059.342,2.570685549471396e-09
318,3070.21,2.630514124307767e-09
319,3081.078,2.530907687273128e-09
320,3091.946,2.418341960228681e-09
321,3102.814,2.3330317947139936e-09
322,3113.682,2.5084515740207435e-09
323,3124.55,2.5606569920344525e-09
324,3135.418,2.5739713713704944e-09
325,3146.286,2.5986324077275367e-09
326,3162.588,2.7840956920987574e-09
327,3184.324,2.7397436793942004e-09
328,3206.06,2.727942129707964e-09
329,3227.796,2.775678756714574e-09
330,3249.532,2.817874367101336e-09
331,3271.268,2.8640468593032032e-09
332,3293.004,2.8967825387416368e-09
333,3314.74,2.9373146743973608e-09
334,3336.476,2.9674531807725236e-09
335,3358.212,3.0032565138027778e-09
336,3379.948,3.0344901428678994e-09
337,3401.6839999999997,3.0215158670147223e-09
338,3423.42,3.051664172133987e-09
339,3445.156,3.103141038114121e-09
340,3466.892,3.0200998946233077e-09
341,3488.628,3.1113900462154836e-09
342,3510.364,3.0386162148655792e-09
343,3532.1,3.2407164600764376e-09
344,3553.836,3.3863891219001167e-09
345,3575.572,3.404568690575378e-09
346,3597.308,3.4109221690611244e-09
347,3619.044,3.420270996241168e-09
348,3640.7799999999997,3.390524354588157e-09
349,3662.516,3.267929246747886e-09
350,3684.252,3.353064306551471e-09
351,3705.988,3.4228475015094955e-09
352,3727.724,3.50303054530998e-09
353,3749.46,3.5466422538025195e-09
354,3771.196,3.5848261148149176e-09
355,3792.932,3.6815466334367093e-09
356,3814.668,3.775812583412132e-09
357,3836.404,3.727689201138285e-09
358,3858.14,3.857788106337477e-09
359,3879.8759999999997,3.633494164486391e-09
360,3901.612,3.6542265273948796e-09
361,3914.46601832,4.0187285466155225e-09
362,3915.444247,4.000190269381603e-09
363,3916.42280172,3.981645813408468e-09
364,3917.4010304,3.963107536174549e-09
365,3918.3793677599997,3.944567199360894e-09
366,3919.3579224799996,3.926022743387759e-09
367,3920.33615116,3.907484466153831e-09
368,3921.31470588,3.875940194771102e-09
369,3922.29293456,3.830700463613821e-09
370,3923.2711632399996,3.785460732456562e-09
371,3924.2497179599995,3.740205923064261e-09
372,3925.22805532,3.6949611658286265e-09
373,3926.20650136,3.6497113825146586e-09
374,3927.1848387200002,3.604466625279024e-09
375,3928.1630674,3.5880957113256113e-09
376,3929.1416221199997,3.5856007453891943e-09
377,3930.1198508,3.583106610738628e-09
378,3931.09840552,3.580611644802211e-09
379,3932.0766342,3.578117510151646e-09
380,3933.05497156,3.5756230984057974e-09
381,3934.0334175999997,3.5731284095646654e-09
382,3935.01175496,3.6409785268840506e-09
383,3935.99030968,3.7210146263885633e-09
384,3936.9685383600004,3.801024059045219e-09
385,3937.94676704,3.881033491701801e-09
386,3938.92532176,3.961069591206314e-09
387,3939.90355044,4.041079023862932e-09
388,3940.88210516,4.118341189009041e-09
389,3941.8604425199997,4.045723562930959e-09
390,3942.8386712,3.97311400368532e-09
391,3943.81722592,3.900480243942251e-09
392,3944.7954546,3.827870684696646e-09
393,3945.77400932,3.755236924953578e-09
394,3946.7522379999996,3.682627365708006e-09
395,3947.73046668,3.628401880276586e-09
396,3948.7090214,3.6627581179744127e-09
397,3949.6873587600003,3.697106724344465e-09
398,3950.6658048,3.731459146378388e-09
399,3951.64414216,3.7658077527484246e-09
400,3952.62237084,3.8001525434545735e-09
401,3953.6009255599997,3.8345087811524e-09
402,3954.57915424,3.854193505804593e-09
403,3955.55770896,3.841889837165997e-09
404,3956.5359376399997,3.829590267928329e-09
405,3957.514275,3.817289332223677e-09
406,3958.49282972,3.80498566358508e-09
407,3959.4710584,3.792686094347406e-09
408,3960.44961312,3.78038242570881e-09
409,3961.4278418,3.77759920411793e-09
410,3962.40607048,3.786682539235671e-09
411,3963.3846252,3.795768901795402e-09
412,3964.36285388,3.804852236913143e-09
413,3965.3414086000002,3.813938599472878e-09
414,3966.3197459599996,3.823022943737943e-09
415,3967.29797464,3.8321062788556886e-09
416,3968.27652936,3.8646660477275815e-09
417,3969.25475804,3.9153602071294065e-09
418,3970.23331276,3.966071262707007e-09
419,3971.21154144,4.016765422108832e-09
420,3972.1898788,4.0674652135692415e-09
421,3973.16832484,4.118170637088258e-09
422,3974.1466622000003,4.1688704285486905e-09
423,3975.12521692,4.17982336726316e-09
424,3976.1034455999998,4.171309081485595e-09
425,3977.0816742800002,4.162794795708022e-09
426,3978.060229,4.154277672150503e-09
427,3979.03845768,4.145763386372933e-09
428,3980.0170124,4.137246262815415e-09
429,3980.99534976,4.128731031111197e-09
430,3981.97357844,4.121217142513439e-09
431,3982.95213316,4.114005058437017e-09
432,3983.9303618400004,4.106795377320634e-09
433,3984.9089165600003,4.099583293244212e-09
434,3985.88714524,4.092373612127836e-09
435,3986.8654826,4.085163130024773e-09
436,3987.84392864,4.077951846935035e-09
437,3988.8222659999997,4.07416038182291e-09
438,3989.8007120400002,4.0709688519351374e-09
439,3990.7790494,4.067777676543634e-09
440,3991.75727808,4.064586855648396e-09
441,3992.7358328,4.061394971264359e-09
442,3993.7140614799996,4.058204150369124e-09
443,3994.6926162,4.055012265985085e-09
444,3995.67084488,4.038823780762151e-09
445,3996.6491822400003,4.02154598122083e-09
446,3997.62773696,4.004264343021541e-09
447,3998.60596564,3.986988462809219e-09
448,3999.5845203599997,3.969706824609931e-09
449,4000.5627490399997,3.952430944397601e-09
450,4001.5409777200002,3.935155064185264e-09
451,4002.51953244,3.909317557110291e-09
452,4003.4978698,3.883336616592557e-09
453,4004.47631584,3.857352789945009e-09
454,4005.4546532,3.831371849427276e-09
455,4006.43288188,3.805393795039343e-09
456,4007.4114366,3.779407082261994e-09
457,4008.38966528,3.756629634323652e-09
458,4009.36822,3.832454354355649e-09
459,4010.34644868,3.908253810709279e-09
460,4011.3247860399997,3.984061688289019e-09
461,4012.30334076,4.059886408321051e-09
462,4013.2815694399997,4.135685864674646e-09
463,4014.2601241599996,4.2115105847066426e-09
464,4015.23835284,4.285491350752449e-09
465,4016.21658152,4.334632898064078e-09
466,4017.19513624,4.383790824071617e-09
467,4018.1734736,4.432937830948541e-09
468,4019.15191964,4.4820902973907835e-09
469,4020.130257,4.531237304267708e-09
470,4021.10848568,4.580378851579337e-09
471,4022.0870404,4.615310257094542e-09
472,4023.06526908,4.511745665899979e-09
473,4024.0438237999997,4.40814655701028e-09
474,4025.02205248,4.30458196581562e-09
475,4026.0003898399996,4.2010058687227105e-09
476,4026.97883588,4.0974182657313105e-09
477,4027.95717324,3.993842168638352e-09
478,4028.93572796,3.901526799145057e-09
479,4029.91395664,3.904166825672854e-09
480,4030.89218532,3.9068068522006515e-09
481,4031.8707400400003,3.9094477586395236e-09
482,4032.84896872,3.9120877851673194e-09
483,4033.82752344,3.914728691606191e-09
484,4034.8058608,3.91736901143768e-09
485,4035.7840894799997,3.935111605079183e-09
486,4036.7626441999996,4.078790164368717e-09
487,4037.74087288,4.222420852081494e-09
488,4038.7194276,4.366099411371028e-09
489,4039.69765628,4.509730099083739e-09
490,4040.67599364,4.653376743988701e-09
491,4041.6544396799995,4.797039346085917e-09
492,4042.63277704,5.179773800945011e-09
493,4043.6113317599998,7.803779371989735e-09
494,4044.5895604400002,1.042691066308116e-08
495,4045.56778912,1.3050041954170144e-08
496,4046.5463438399997,1.5674047525214866e-08
497,4047.5245725199998,1.8297178816305072e-08
498,4048.5031272399997,2.0921184387349796e-08
499,4049.4814646,2.3295971036454653e-08
500,4050.45969328,2.2550809403880992e-08
501,4051.438248,2.180539941169207e-08
502,4052.41647668,2.106023777911841e-08
503,4053.3950314,2.0314827786929486e-08
504,4054.37326008,1.9569666154355825e-08
505,4055.3515974399998,1.882442173524386e-08
506,4056.33004348,1.8032807248186793e-08
507,4057.30838084,1.6105387882109507e-08
508,4058.28693556,1.4177540295778335e-08
509,4059.26516424,1.2250335039828889e-08
510,4060.2433929199997,1.0323129783880339e-08
511,4061.2219476399996,8.395282197549167e-09
512,4062.20017632,6.4680769415988254e-09
513,4063.17873104,4.540229355267654e-09
514,4064.1570684,4.544204504280468e-09
515,4065.13529708,4.5624693353705305e-09
516,4066.1138518,4.580740254061221e-09
517,4067.0920804800003,4.599005085151292e-09
518,4068.0706352,4.617276003841983e-09
519,4069.04886388,4.635540834932046e-09
520,4070.02720124,4.6538076952223146e-09
521,4071.0056472799997,4.4902191919300495e-09
522,4071.98398464,4.313791873760993e-09
523,4072.96253936,4.137325358231823e-09
524,4073.94076804,3.960917638742905e-09
525,4074.91899672,3.784509919253985e-09
526,4075.89755144,3.6080434037248164e-09
527,4076.87578012,3.4316356842358973e-09
528,4077.85433484,3.6413303615644444e-09
529,4078.8326721999997,3.912059543474731e-09
530,4079.81090088,4.182758651048168e-09
531,4080.7894556,4.4535479816325285e-09
532,4081.76768428,4.72424708920584e-09
533,4082.746239,4.9950364197902005e-09
