,rest_wave,flux
0,106.6065,4.304283951731915e-11
1,110.121,-4.8172860702452654e-14
2,112.464,-8.121087973249229e-16
3,114.807,2.861120705489216e-15
4,117.15,3.521217560299482e-16
5,119.493,-2.7076206357073454e-15
6,121.836,-7.603181231787711e-16
7,124.179,1.5146423674054318e-15
8,126.52199999999999,-1.1384964851526538e-15
9,128.865,3.72141958051057e-16
10,133.551,-2.496666996300814e-16
11,138.237,-3.371000426118743e-16
12,141.7515,9.30356551270762e-17
13,146.4375,-2.341361564225961e-18
14,148.7805,-2.362865863445167e-17
15,149.952,7.352463579518398e-17
16,153.4665,1.7536736231034705e-17
17,154.638,1.784394255491992e-16
18,156.981,-1.7356690634829803e-16
19,160.4955,2.3429958096913865e-16
20,164.01,-1.136036352401484e-16
21,167.5245,-2.4800960878177673e-16
22,172.2105,-7.760412300239466e-17
23,176.8965,-2.552062102911178e-16
24,181.5825,-1.0506473795535005e-16
25,186.2685,1.150644899117246e-16
26,189.783,-1.2695693850232968e-16
27,194.469,-5.325461061623111e-16
28,199.155,-5.680072655863308e-16
29,202.6695,-2.2848254002264874e-16
30,207.3555,-3.2314265138243266e-16
31,210.87,-2.0260960982000169e-16
32,213.213,-4.15420125503613e-16
33,217.899,6.092412059625505e-16
34,223.7565,1.2315847303290226e-16
35,227.271,-3.648892981971164e-16
36,231.957,-3.974637748584216e-16
37,236.643,-9.233581321016119e-17
38,240.1575,-3.6167634011712776e-16
39,246.015,-9.205579554150522e-17
40,253.04399999999998,7.100646950317058e-16
41,257.73,-5.03096615807104e-16
42,261.2445,-4.715321324345366e-16
43,265.9305,-3.503339579281434e-16
44,269.445,-7.781261489151266e-16
45,274.131,-5.439982479927096e-16
46,281.15999999999997,7.040510681573094e-16
47,288.189,-1.8204882915022511e-16
48,295.218,-5.078437080820532e-16
49,301.0755,2.254569500130016e-16
50,304.59,-5.155439835286981e-16
51,309.276,5.382515863150781e-16
52,315.13349999999997,-4.595829672314857e-16
53,320.991,7.460012496854896e-16
54,326.8485,-4.3151397874971745e-16
55,332.706,-5.648224347602708e-16
56,339.735,1.2570293300556825e-17
57,346.764,1.257255751710842e-16
58,352.62149999999997,-1.3607467590521937e-16
59,360.822,-9.201897432302423e-16
60,372.537,5.69644918810765e-16
61,384.252,1.0003799219396466e-15
62,395.967,4.220485144414345e-16
63,407.682,-7.962131747621255e-16
64,418.2255,8.899781637913723e-16
65,428.769,-1.485069341630364e-16
66,439.3125,-8.47158053339328e-16
67,451.0275,3.0551928223530464e-16
68,462.7425,-7.437806341965502e-17
69,474.4575,7.480163405712541e-16
70,485.001,-9.024359383547825e-16
71,494.373,2.3971148520176817e-16
72,503.745,-9.403080267735637e-17
73,516.6315,4.2095813841531815e-16
74,528.3465,1.0884333861644723e-16
75,538.89,-8.665296720350855e-16
76,550.605,9.299842655514187e-16
77,562.3199999999999,7.257652453081579e-16
78,574.035,3.3735886026133427e-16
79,585.75,6.401015249161521e-16
80,592.779,-5.759558214134562e-16
81,599.808,7.534422328422411e-16
82,609.18,-3.77326806757401e-16
83,620.895,-2.7038249818498036e-16
84,632.61,2.9848599192674245e-16
85,644.325,3.082186630017926e-16
86,656.04,-1.5407317023418071e-15
87,667.755,-1.9912065437121007e-16
88,679.47,5.944759749627729e-16
89,691.185,8.373354715082385e-16
90,702.9,5.246104023434127e-16
91,714.615,-3.4639606838201787e-16
92,726.33,-1.4208014706481051e-15
93,738.045,6.732333233191714e-16
94,749.76,8.43354753070842e-16
95,761.475,-5.017392490670859e-16
96,770.847,2.445478048602371e-15
97,779.0475,1.9640519449672844e-15
98,790.7625,-6.43543405355185e-16
99,802.4775,2.9121702600769586e-15
100,814.1925,3.705427226033997e-15
101,825.9075,3.0433331824408827e-15
102,838.794,5.622444051071526e-15
103,850.509,7.770795642043705e-15
104,861.0525,6.470828579761708e-15
105,872.7675,8.782565181237576e-15
106,884.4825,1.1826850326747403e-14
107,896.1975,1.7446229756059527e-14
108,907.9125,2.293949021495544e-14
109,919.6274999999999,2.920581737524571e-14
110,931.3425,3.358716095687932e-14
111,943.0575,4.0966509661129884e-14
112,954.7725,5.216544059972867e-14
113,966.4875,6.05957623007215e-14
114,978.2025,7.776196785637384e-14
115,989.9175,8.642948470076786e-14
116,1001.6324999999999,1.0442264369128803e-13
117,1013.3475,1.2524328222787125e-13
118,1025.0625,1.6607558130618806e-13
119,1036.7775,2.430168728022617e-13
120,1048.4925,3.922389041499444e-13
121,1060.2075,1.4025435062603877e-11
122,1071.9225,3.628569797120699e-10
123,1083.6375,3.4018912512279684e-10
124,1095.3525,4.59471527392226e-10
125,1107.0674999999999,4.3976407920361746e-10
126,1118.7825,4.963021718114205e-10
127,1130.4975,5.28627671409675e-10
128,1142.2125,3.599662873741109e-10
129,1153.9275,4.280360745158224e-10
130,1165.6425,6.372553512562807e-10
131,1177.3575,6.849905693568519e-10
132,1189.0725,6.650169469553836e-10
133,1200.7875,5.488830395135802e-10
134,1212.5025,6.390090316219412e-10
135,1224.2175,8.911182502976944e-10
136,1235.9325,9.438196929628675e-10
137,1247.6475,9.090250149335582e-10
138,1259.3625,9.111570334951115e-10
139,1271.0774999999999,8.95471363656068e-10
140,1282.7925,1.047210148749341e-09
141,1294.5075,1.0601757531750433e-09
142,1306.2225,9.980995026779238e-10
143,1317.9375,8.500771300858939e-10
144,1329.6525,1.1589397831213274e-09
145,1341.3675,1.1480675642659076e-09
146,1353.0825,9.894899418827998e-10
147,1364.7975,1.0989766622649895e-09
148,1376.5125,1.2826363712139634e-09
149,1388.2275,1.905043561673717e-09
150,1399.9424999999999,2.3876950525909807e-09
151,1411.6575,2.9205858806850834e-09
152,1423.3725,3.1123717977770772e-09
153,1435.0875,3.0952627215972626e-09
154,1446.8025,2.6078998533746488e-09
155,1458.5175,2.2469405666164503e-09
156,1470.2325,1.7083578577404915e-09
157,1481.9475,1.4746694562079569e-09
158,1493.6625,1.5287503664036548e-09
159,1505.3775,1.4478236463608381e-09
160,1517.0925,1.4004985399264074e-09
161,1528.8075,1.47834222368527e-09
162,1540.5225,1.5356139929476817e-09
163,1552.2375,1.5393560755324526e-09
164,1563.9524999999999,1.5521562198640875e-09
165,1575.6675,1.5245298490572338e-09
166,1587.3825,1.6475013884288146e-09
167,1599.0975,1.6000942467158323e-09
168,1610.8125,1.659065150793691e-09
169,1622.5275,1.6499258538130665e-09
170,1634.2425,1.6953502015112795e-09
171,1645.9575,1.7875471772894457e-09
172,1657.6725,1.6587215374957941e-09
173,1669.3875,1.6326988135202706e-09
174,1681.1025,1.707021854267791e-09
175,1689.3029999999999,1.769797977748022e-09
176,1695.1605,1.7844448995520753e-09
177,1704.5325,1.7838246624499444e-09
178,1716.2475,1.7381302935710102e-09
179,1727.9625,1.7579594449050179e-09
180,1739.6775,1.733442536928672e-09
181,1751.3925,1.8041971088050352e-09
182,1763.1075,1.776387254003831e-09
183,1771.308,1.7062395535835513e-09
184,1777.1655,1.7421230903278835e-09
185,1786.5375,1.6509888765252178e-09
186,1798.2525,1.6509332645421067e-09
187,1809.9675,1.4695272982963092e-09
188,1821.6825,1.755079215452059e-09
189,1833.3975,1.5438246875766916e-09
190,1845.1125,1.7663330837500637e-09
191,1856.8274999999999,1.6570410542042565e-09
192,1868.5425,1.8527414760919562e-09
193,1880.2575,1.8601732357143342e-09
194,1891.9725,1.8667681023050794e-09
195,1903.6875,1.8493693123011069e-09
196,1915.4025,1.8874907742566007e-09
197,1927.1175,1.896368165322041e-09
198,1938.8325,1.8551460531927434e-09
199,1950.5475,1.9206786906127417e-09
200,1958.748,1.868965860917308e-09
201,1964.6055,1.9130674030248856e-09
202,1973.9775,1.9568828655932525e-09
203,1985.6924999999999,1.9304286375979904e-09
204,1997.4075,1.905310694334388e-09
205,2009.1225,1.881662390527563e-09
206,2020.8374999999999,1.886961749078352e-09
207,2032.5525,1.9321803800660205e-09
208,2044.2675,1.9244915515522457e-09
209,2055.9825,1.9688436790684505e-09
210,2067.6974999999998,1.9100216991089665e-09
211,2079.4125,1.9543705444658597e-09
212,2091.1275,1.9731696534300645e-09
213,2102.8425,2.0184638707622566e-09
214,2114.5575,2.0187071439176775e-09
215,2126.2725,1.985898517520001e-09
216,2137.9875,1.9966112520732428e-09
217,2149.7025,1.9790872365394078e-09
218,2161.4175,1.932564153849994e-09
219,2173.1325,1.932845487164123e-09
220,2184.8475,1.9643857866515747e-09
221,2196.5625,2.0320181677890903e-09
222,2208.2775,2.0008581995864356e-09
223,2219.9925,1.9900246392032593e-09
224,2231.7075,2.052282543629891e-09
225,2243.4225,2.0254169893790014e-09
226,2255.1375,2.0087082821568718e-09
227,2266.8525,2.023305738620872e-09
228,2278.5675,2.0441747243307363e-09
229,2290.2825,2.002015708092762e-09
230,2304.3405,2.0634833613112633e-09
231,2314.884,2.0865431963520896e-09
232,2324.256,2.053775871010826e-09
233,2337.1425,2.0323218984484317e-09
234,2348.8575,2.061087830098425e-09
235,2360.5724999999998,2.0442538950258915e-09
236,2372.2875,2.0914129776723886e-09
237,2384.0025,2.0609657199328066e-09
238,2395.7174999999997,2.0827762283484897e-09
239,2407.4325,2.07268254932751e-09
240,2419.1475,2.092519467263424e-09
241,2429.691,2.1376326356598098e-09
242,2434.377,2.1108594741532534e-09
243,2442.5775,2.1323033053863127e-09
244,2454.2925,2.099431793743536e-09
245,2466.0075,2.122016210675172e-09
246,2477.7225,2.134524426341389e-09
247,2489.4375,2.1512466319197548e-09
248,2501.1525,2.1103052920877115e-09
249,2512.8675,2.133850235322558e-09
250,2524.5825,2.1618368845945447e-09
251,2536.2975,2.1435983008899738e-09
252,2548.0125,2.1393605828392727e-09
253,2559.7275,2.1373256793271323e-09
254,2571.4425,2.1769419427961865e-09
255,2583.1575,2.1589528213488297e-09
256,2594.8725,2.1288135604233274e-09
257,2606.5875,2.1112302069085347e-09
258,2618.3025,2.17084560156148e-09
259,2630.0175,2.1379890186115692e-09
260,2641.7325,2.1212647601616405e-09
261,2653.4474999999998,2.14112208039537e-09
262,2665.1625,2.1763007706194883e-09
263,2676.8775,2.206364892710311e-09
264,2688.5924999999997,2.1856447268796734e-09
265,2700.3075,2.198397705662628e-09
266,2712.0225,2.1820237433408568e-09
267,2723.7375,2.04828269768673e-09
268,2735.4525,2.1584948809920066e-09
269,2747.1675,2.1321976983904366e-09
270,2758.8825,2.1612948440954326e-09
271,2770.5975,2.1098935736945815e-09
272,2782.3125,2.1215262686786207e-09
273,2794.0275,2.0808828284735523e-09
274,2805.7425,2.1270279285033357e-09
275,2817.4575,2.106019593992358e-09
276,2829.1725,2.1267467210245246e-09
277,2840.8875,2.1664060526790136e-09
278,2852.6025,2.146152631743367e-09
279,2864.3175,2.196313434434262e-09
280,2876.0325,2.1961805060312413e-09
281,2887.7475,2.198312049284647e-09
282,2899.4625,2.1841747082358488e-09
283,2911.1775,2.219739242179378e-09
284,2922.8925,2.195940344286347e-09
285,2934.6075,2.2438361016398156e-09
286,2943.9795,2.192274305675723e-09
287,2949.837,2.2078816263522725e-09
288,2958.0375,2.1740254218465844e-09
289,2969.7525,2.1749696386521187e-09
290,2981.4674999999997,2.178387757855335e-09
291,2993.1825,2.2242843603750806e-09
292,3004.8975,2.2259041414100784e-09
293,3016.6125,2.272474367188627e-09
294,3028.3275,2.2824005926168395e-09
295,3040.0425,2.283948880023294e-09
296,3051.7575,2.2588057919802597e-09
297,3063.4725,2.261167672186577e-09
298,3075.1875,2.2901902165705217e-09
299,3086.9025,2.321201138080032e-09
300,3098.6175,2.4095926037246294e-09
301,3110.3325,2.4283671670012014e-09
302,3122.0475,2.4023944533844837e-09
303,3133.7625,2.4250747563630456e-09
304,3145.4775,2.416647464674341e-09
305,3157.1925,2.382682489562184e-09
306,3168.9075,2.3843790339677604e-09
307,3180.6225,2.359630648486963e-09
308,3192.3375,2.363105403940817e-09
309,3204.0525,2.405965102886056e-09
310,3215.7675,2.3237967223049475e-09
311,3227.4825,2.3513657404752396e-09
312,3239.1974999999998,2.424646484696592e-09
313,3250.9125,2.5186189087465067e-09
314,3262.6275,2.5609803772083883e-09
315,3274.3424999999997,2.490075882768974e-09
316,3286.0575,2.541182378041943e-09
317,3297.7725,2.6083389528912603e-09
318,3309.4875,2.561797640712513e-09
319,3321.2025,2.4836040578406565e-09
320,3332.9175,2.44304675405215e-09
321,3344.6325,2.43863634916776e-09
322,3356.3475,2.4782005290274797e-09
323,3368.0625,2.4795061489062955e-09
324,3379.7775,2.493981911099086e-09
325,3391.4925,2.5026484535752137e-09
326,3409.065,2.5551366236557667e-09
327,3432.495,2.5491764503959066e-09
328,3455.925,2.554717203342194e-09
329,3479.355,2.579140695984839e-09
330,3502.785,2.5973990913262472e-09
331,3526.215,2.6249134120904387e-09
332,3549.645,2.639347677949478e-09
333,3573.075,2.648163614124935e-09
334,3596.505,2.6571422980191226e-09
335,3619.935,2.6785856189702465e-09
336,3643.365,2.684420085099681e-09
337,3666.795,2.6887168344157576e-09
338,3690.225,2.7056261741913304e-09
339,3713.6549999999997,2.718039382217694e-09
340,3737.085,2.7018298634265413e-09
341,3760.515,2.736993979687467e-09
342,3783.945,2.7373479451024535e-09
343,3807.375,2.7743163625943195e-09
344,3830.805,2.8069818308683815e-09
345,3854.235,2.821864503382984e-09
346,3877.665,2.8378554127355396e-09
347,3901.095,2.846772359086236e-09
348,3924.525,2.8495801705498238e-09
349,3947.955,2.8481513209439434e-09
350,3971.3849999999998,2.8702522784379963e-09
351,3994.815,2.897845882897394e-09
352,4018.245,2.9112045964200825e-09
353,4041.6749999999997,2.910061432078168e-09
354,4065.105,2.9247327312693612e-09
355,4088.535,2.9505027174745822e-09
356,4111.965,2.9821273611856713e-09
357,4135.3949999999995,2.989050110527718e-09
358,4158.825,3.0203078980121634e-09
359,4182.255,3.001505765395865e-09
360,4205.685,3.0158743609796567e-09
361,4219.5407991,3.076185120119713e-09
362,4220.59526625,3.0676609704875362e-09
363,4221.65008485,3.0591339797878273e-09
364,4222.704552,3.050609830155651e-09
365,4223.7591363,3.0420847335009634e-09
366,4224.8139549,3.033557742801255e-09
367,4225.86842205,3.025033593169078e-09
368,4226.9232406500005,3.0172036638680757e-09
369,4227.9777078,3.0101112693980203e-09
370,4229.03217495,3.0030188749279582e-09
371,4230.0869935499995,2.9959241165890623e-09
372,4231.1415778499995,2.988830934162722e-09
373,4232.1962793,2.981736963780098e-09
374,4233.2508636,2.974643781353758e-09
375,4234.3053307499995,2.9695818741283135e-09
376,4235.36014935,2.965494627877828e-09
377,4236.4146165,2.961408743437512e-09
378,4237.4694351,2.9573214971870304e-09
379,4238.52390225,2.9532356127467146e-09
380,4239.57848655,2.9491492743696765e-09
381,4240.633188,2.9450624820559165e-09
382,4241.6877723,2.9626448420006865e-09
383,4242.742590899999,2.983980194820329e-09
384,4243.7970580500005,3.005308439015116e-09
385,4244.8515252,3.0266366832098664e-09
386,4245.9063438,3.0479720360295274e-09
387,4246.9608109499995,3.0693002802242778e-09
388,4248.01562955,3.089891816550289e-09
389,4249.07021385,3.070293871518138e-09
390,4250.124681,3.0506981035516394e-09
391,4251.1794996,3.0310958043881835e-09
392,4252.23396675,3.011500036421685e-09
393,4253.28878535,2.991897737258229e-09
394,4254.3432525,2.97230196929173e-09
395,4255.39771965,2.9581793984618697e-09
396,4256.4525382500005,2.970429525128434e-09
397,4257.5071225500005,2.9826769307539735e-09
398,4258.561824,2.99492569690002e-09
399,4259.6164083,3.0071731025255592e-09
400,4260.67087545,3.0194191476305805e-09
401,4261.72569405,3.031669274297145e-09
402,4262.7801612,3.03406775542508e-09
403,4263.8349798,3.0149751575008063e-09
404,4264.88944695,2.9958889209485547e-09
405,4265.94403125,2.9768005639389624e-09
406,4266.99884985,2.957707966014689e-09
407,4268.053317,2.9386217294624372e-09
408,4269.1081355999995,2.9195291315381636e-09
409,4270.16260275,2.9034058454263645e-09
410,4271.2170699,2.8909772561384426e-09
411,4272.2718884999995,2.878544524447698e-09
412,4273.32635565,2.8661159351597764e-09
413,4274.38117425,2.853683203469021e-09
414,4275.43575855,2.8412532333801586e-09
415,4276.4902257,2.8288246440922368e-09
416,4277.5450443,2.826413722377278e-09
417,4278.59951145,2.831750589383397e-09
418,4279.65433005,2.8370892351475423e-09
419,4280.7087972,2.842426102153661e-09
420,4281.7633815,2.8477635620791224e-09
421,4282.81808295,2.8531016149239253e-09
422,4283.87266725,2.858439074849386e-09
423,4284.92748585,2.851755850083817e-09
424,4285.9819529999995,2.83918954867138e-09
425,4287.036420150001,2.826623247258921e-09
426,4288.09123875,2.814052757544708e-09
427,4289.1457059,2.80148645613226e-09
428,4290.2005245,2.7889159664180473e-09
429,4291.2551088,2.776348268905011e-09
430,4292.30957595,2.767118269474084e-09
431,4293.36439455,2.758900056929995e-09
432,4294.4188617,2.750684582573111e-09
433,4295.4736803000005,2.742466370029015e-09
434,4296.52814745,2.734250895672138e-09
435,4297.58273175,2.726034508586186e-09
436,4298.6374332,2.717817208771165e-09
437,4299.6920175,2.7186704316940044e-09
438,4300.74671895,2.721116311959646e-09
439,4301.80130325,2.72356192055137e-09
440,4302.8557703999995,2.7260072574691764e-09
441,4303.910589,2.7284534094087335e-09
442,4304.965056149999,2.73089874632654e-09
443,4306.01987475,2.7333448982660974e-09
444,4307.0743419,2.730268353735333e-09
445,4308.1289262,2.726729451063742e-09
446,4309.183744800001,2.7231897621440544e-09
447,4310.23821195,2.7196512525965127e-09
448,4311.29303055,2.7161115636768256e-09
449,4312.3474977,2.712573054129284e-09
450,4313.40196485,2.7090345445817394e-09
451,4314.45678345,2.70175074834175e-09
452,4315.51136775,2.69440329106131e-09
453,4316.5660692,2.687055017578107e-09
454,4317.6206535,2.679707560297667e-09
455,4318.675120649999,2.672360919219996e-09
456,4319.72993925,2.6650118295340245e-09
457,4320.7844064,2.6588322770890826e-09
458,4321.839225,2.6886083284622304e-09
459,4322.89369215,2.718374458894243e-09
460,4323.94827645,2.748143896306634e-09
461,4325.0030950499995,2.7779199476797822e-09
462,4326.0575622,2.8076860781117946e-09
463,4327.112380799999,2.8374621294849424e-09
464,4328.16684795,2.866340451166255e-09
465,4329.2213151,2.883093302306628e-09
466,4330.2761337,2.8998517371103272e-09
467,4331.330718,2.9166064494718138e-09
468,4332.38541945,2.9333630230543997e-09
469,4333.44000375,2.950117735415886e-09
470,4334.4944709,2.966870586556273e-09
471,4335.5492895,2.981168025121057e-09
472,4336.60375665,2.971504773130318e-09
473,4337.65857525,2.9618383004134448e-09
474,4338.7130424,2.9521750484227057e-09
475,4339.7676267,2.9425107228565883e-09
476,4340.8223281499995,2.9328453237150932e-09
477,4341.87691245,2.9231809981489676e-09
478,4342.93173105,2.912659689377117e-09
479,4343.9861982,2.894950564184342e-09
480,4345.04066535,2.8772414389915677e-09
481,4346.09548395,2.8595264114128914e-09
482,4347.1499511,2.841817286220117e-09
483,4348.2047697,2.8241022586414406e-09
484,4349.259354,2.806391165986699e-09
485,4350.31382115,2.8080026283953165e-09
486,4351.36863975,2.9707158887013462e-09
487,4352.4231069,3.1333749353489814e-09
488,4353.4779255,3.2960881956551513e-09
489,4354.53239265,3.4587472423026462e-09
490,4355.58697695,3.6214243601697462e-09
491,4356.641678399999,3.784119549256311e-09
492,4357.696262699999,4.284887743468511e-09
493,4358.7510813,7.955000352978234e-09
494,4359.80554845,1.1623890135095637e-08
495,4360.8600156,1.529277991721304e-08
496,4361.9148342,1.8962892526719598e-08
497,4362.96930135,2.2631782308837e-08
498,4364.02411995,2.630189491834356e-08
499,4365.07870425,2.9624878254048858e-08
500,4366.1331714,2.8602223526795702e-08
501,4367.18799,2.7579227952504985e-08
502,4368.24245715,2.6556573225252713e-08
503,4369.29727575,2.5533577650961995e-08
504,4370.351742899999,2.451092292370972e-08
505,4371.406327199999,2.348815458077767e-08
506,4372.46102865,2.2400278235366386e-08
507,4373.51561295,1.9717556371022883e-08
508,4374.57043155,1.7034238478716633e-08
509,4375.6248987,1.43518146283545e-08
510,4376.67936585,1.1669390777992366e-08
511,4377.73418445,8.986072885686118e-09
512,4378.7886516,6.303649035323986e-09
513,4379.8434702,3.6203311430154234e-09
514,4380.8980545,3.55784636763728e-09
515,4381.95252165,3.5147553090516035e-09
516,4383.00734025,3.4716498883754663e-09
517,4384.0618074,3.4285588297897526e-09
518,4385.116626,3.3854534091136526e-09
519,4386.17109315,3.342362350527939e-09
520,4387.22567745,3.2992665045787628e-09
521,4388.2803789,3.2520220229454706e-09
522,4389.3349632,3.2044898264465353e-09
523,4390.3897818,3.15694706958403e-09
524,4391.44424895,3.1094201532668794e-09
525,4392.4987161,3.0618932369497285e-09
526,4393.5535347,3.014350480087223e-09
527,4394.60800185,2.9668235637700725e-09
528,4395.662820449999,3.0355090302697684e-09
