,rest_wave,flux
0,98.8988,3.9167827883222924e-15
1,102.1592,3.1575178100855832e-15
2,104.33279999999999,4.173326094480071e-15
3,106.5064,5.716735771761306e-15
4,108.67999999999999,8.178877024461873e-15
5,110.8536,7.456079395152097e-15
6,113.0272,1.0794571915227023e-14
7,115.2008,1.464320129039991e-14
8,117.3744,1.8122842395877554e-14
9,119.548,2.0575031937451778e-14
10,123.8952,2.5402567313735412e-14
11,128.2424,3.492973081470129e-14
12,131.5028,5.889949230890938e-14
13,135.85,7.015491843583816e-14
14,138.0236,7.173248448185345e-14
15,139.1104,7.176868960515203e-14
16,142.3708,5.709602510484921e-14
17,143.45759999999999,5.994164549133585e-14
18,145.6312,6.079441076250605e-14
19,148.8916,7.959778487778058e-14
20,152.152,1.220248920369145e-13
21,155.4124,1.3847274793456344e-13
22,159.7596,1.3603015836261115e-13
23,164.1068,1.4460247818021082e-13
24,168.454,1.706903987757998e-13
25,172.8012,2.060436363763386e-13
26,176.0616,1.8112907882741152e-13
27,180.40879999999999,1.6011524381849078e-13
28,184.756,1.6061741511755918e-13
29,188.0164,2.441546126543055e-13
30,192.3636,2.9573831747328646e-13
31,195.624,2.909727084310116e-13
32,197.7976,2.4479174838207845e-13
33,202.1448,3.2555697017155143e-13
34,207.5788,2.669289361242831e-13
35,210.8392,2.6130690524033065e-13
36,215.1864,4.830207064578941e-13
37,219.5336,4.373170557910605e-13
38,222.794,3.958164336305685e-13
39,228.228,4.768864188473029e-13
40,234.7488,7.471145881506704e-13
41,239.096,6.445301901314047e-13
42,242.3564,7.47604236106823e-13
43,246.7036,7.786010507146952e-13
44,249.964,1.4141714783600828e-12
45,254.31119999999999,1.6486076155995956e-12
46,260.832,2.3828988245245925e-12
47,267.3528,1.3852635260280005e-11
48,273.8736,2.1257267460774445e-11
49,279.3076,3.646758507745978e-11
50,282.568,9.902613883889146e-12
51,286.91519999999997,1.5447588795765168e-11
52,292.3492,1.8776289429073016e-11
53,297.7832,4.910503141595161e-11
54,303.2172,1.6777071089812258e-11
55,308.6512,2.5280456587142073e-11
56,315.17199999999997,1.4232872780863598e-11
57,321.6928,1.794689533062858e-11
58,327.1268,3.6372563121116295e-11
59,334.7344,4.5647989299059675e-11
60,345.6024,4.033729532408066e-11
61,356.4704,7.2706345935972e-11
62,367.3384,4.137132588434214e-11
63,378.2064,6.041868135017189e-11
64,387.9876,1.4098898227671436e-11
65,397.7688,5.889186239556805e-11
66,407.55,5.240728621208613e-11
67,418.418,7.911675625768649e-11
68,429.286,5.41521311368995e-11
69,440.154,7.125078434135394e-11
70,449.9352,8.263065600597892e-11
71,458.6296,9.295741126589481e-11
72,467.324,9.313288394742047e-11
73,479.2788,6.779766693757727e-11
74,490.1468,1.181415910570062e-10
75,499.928,8.576665482881614e-11
76,510.796,1.5323214663741748e-10
77,521.664,1.0430062526340729e-10
78,532.532,9.979318921386778e-11
79,543.4,1.6735981979160371e-10
80,549.9208,1.5254628352277981e-10
81,556.4416,1.4638401627745546e-10
82,565.136,1.8317306555011707e-10
83,576.004,1.8017428184459103e-10
84,586.872,5.525247069972883e-11
85,597.74,7.95496412626253e-11
86,608.608,1.959222523854842e-10
87,619.476,1.8061045643112875e-10
88,630.3439999999999,1.8514482785334224e-10
89,641.212,2.368905841574669e-10
90,652.08,1.653329280778747e-10
91,662.948,2.9432043010019295e-10
92,673.816,2.031519791430246e-10
93,684.684,2.546195592427481e-10
94,695.552,2.0132597379013955e-10
95,706.42,2.399065481980336e-10
96,715.1144,2.249967630144918e-10
97,722.722,2.2907679139450227e-10
98,733.59,2.518364710619747e-10
99,744.458,2.5456037809147227e-10
100,755.326,2.4596602407522195e-10
101,766.194,2.632924543366372e-10
102,778.1487999999999,2.762466637604628e-10
103,789.0168,2.773306709984845e-10
104,798.798,2.7027951575337406e-10
105,809.6659999999999,2.63537126431663e-10
106,820.534,1.610829099904594e-10
107,831.402,3.250135894452867e-10
108,842.27,2.596543794844936e-10
109,853.138,9.94774933288602e-11
110,864.006,3.0885903079762527e-10
111,874.874,2.979357098690925e-10
112,885.742,2.9617631120113093e-10
113,896.61,3.005457430693587e-10
114,907.478,2.5211813179668514e-10
115,918.346,3.0354863759102325e-10
116,929.2139999999999,2.898488104034848e-10
117,940.082,2.8132505565620356e-10
118,950.95,3.040394692554889e-10
119,961.818,3.152428430347333e-10
120,972.686,3.2192625970960463e-10
121,983.554,3.4522409917718394e-10
122,994.422,9.932578183299324e-10
123,1005.29,9.813902509345192e-10
124,1016.158,1.1759669331681032e-09
125,1027.026,1.2372023714896791e-09
126,1037.894,9.576340948974342e-10
127,1048.762,1.1986461800902923e-09
128,1059.6299999999999,7.734069692756504e-10
129,1070.498,1.124338327611249e-09
130,1081.366,9.825533372619655e-10
131,1092.234,1.3318888122823891e-09
132,1103.102,1.1971801021257731e-09
133,1113.97,8.034929878056226e-10
134,1124.838,1.0060732552568712e-09
135,1135.706,1.4383593130467273e-09
136,1146.574,1.4439594473085783e-09
137,1157.442,1.4217525334205762e-09
138,1168.31,1.4586484165509099e-09
139,1179.1779999999999,1.26595489963305e-09
140,1190.046,1.482540510558502e-09
141,1200.914,1.480509493610621e-09
142,1211.782,1.3742483796711894e-09
143,1222.65,1.177331213251669e-09
144,1233.518,1.4781389062164036e-09
145,1244.386,1.2844250443769746e-09
146,1255.254,1.4368007101185791e-09
147,1266.122,1.4462303577964963e-09
148,1276.99,1.0526400499463873e-09
149,1287.858,1.2680729292482611e-09
150,1298.7259999999999,1.2905787757741303e-09
151,1309.594,1.179966068629313e-09
152,1320.462,7.736158665747755e-10
153,1331.33,1.1060417117705838e-09
154,1342.198,1.1637931855470263e-09
155,1353.066,1.6413870463339212e-09
156,1363.934,1.521609695192526e-09
157,1374.802,1.444093542393284e-09
158,1385.67,1.6097642046972637e-09
159,1396.538,1.651752800059879e-09
160,1407.406,1.5174254172758596e-09
161,1418.274,1.5528498364229017e-09
162,1429.142,1.6549891693355692e-09
163,1440.01,1.6249300579649644e-09
164,1450.878,1.5635540405685579e-09
165,1461.746,1.740116702359363e-09
166,1472.614,1.648921970112879e-09
167,1483.482,1.5774857489183524e-09
168,1494.35,1.6441148942548207e-09
169,1505.218,1.7034421658926907e-09
170,1516.086,1.800864811678584e-09
171,1526.954,1.7675128190201708e-09
172,1537.822,1.692265269961996e-09
173,1548.69,1.644683943513523e-09
174,1559.558,1.6914984724769121e-09
175,1567.1656,1.7520283518233167e-09
176,1572.5996,1.7909464950438204e-09
177,1581.294,1.7509577933172033e-09
178,1592.162,1.7135982719690589e-09
179,1603.03,1.7288152990006022e-09
180,1613.898,1.7339272533699514e-09
181,1624.766,1.7743991115647715e-09
182,1635.634,1.7194210422402457e-09
183,1643.2416,1.6484471943701624e-09
184,1648.6756,1.6993806699864626e-09
185,1657.37,1.643986307464491e-09
186,1668.238,1.6074176692859225e-09
187,1679.106,1.3947544788273483e-09
188,1689.974,1.754072559694381e-09
189,1700.8419999999999,1.6259184889160023e-09
190,1711.71,1.6145117674967119e-09
191,1722.578,1.705047244395956e-09
192,1733.446,1.8022636173675851e-09
193,1744.314,1.7958735583271197e-09
194,1755.182,1.7876460450024286e-09
195,1766.05,1.7439422108818266e-09
196,1776.918,1.7347504470276544e-09
197,1787.786,1.8125631516113964e-09
198,1798.654,1.7174714297395976e-09
199,1809.522,1.7706666900052904e-09
200,1817.1296,1.6406794788511623e-09
201,1822.5636,1.7773564097882584e-09
202,1831.258,1.917355195370591e-09
203,1842.126,1.8338656436351259e-09
204,1852.994,1.824367989141665e-09
205,1863.862,1.7972966024601716e-09
206,1874.73,1.7630701526260658e-09
207,1885.598,1.891368163468869e-09
208,1896.466,1.828728313769583e-09
209,1907.334,1.9484690434450177e-09
210,1918.202,1.8350430863265743e-09
211,1929.07,1.8622431307480648e-09
212,1939.9379999999999,1.9176383411904147e-09
213,1950.806,2.024267049676893e-09
214,1961.674,1.9780561549735356e-09
215,1972.542,1.9602286511447067e-09
216,1983.41,1.9374506995271955e-09
217,1994.278,1.9230303662537304e-09
218,2005.146,1.8282426477138257e-09
219,2016.014,1.8511875226030627e-09
220,2026.882,1.8938708253937033e-09
221,2037.75,1.9525169895585964e-09
222,2048.618,1.8595602432754125e-09
223,2059.486,1.8288833280619995e-09
224,2070.354,1.9376159816183e-09
225,2081.2219999999998,1.920641679948122e-09
226,2092.09,1.9267857717838635e-09
227,2102.958,1.9247274393575086e-09
228,2113.826,2.0131435946825425e-09
229,2124.694,1.943441146994802e-09
230,2137.7356,2.063834060489052e-09
231,2147.5168,2.0608448704543485e-09
232,2156.2112,2.019623995148374e-09
233,2168.166,1.995623314011869e-09
234,2179.034,1.971594587697668e-09
235,2189.902,1.981611173680587e-09
236,2200.77,1.9861168996081257e-09
237,2211.638,1.9677558048938546e-09
238,2222.506,2.0416770054467993e-09
239,2233.374,2.0311527363123347e-09
240,2244.242,2.0299486232981065e-09
241,2254.0232,2.115610648855565e-09
242,2258.3704,2.0834740266489784e-09
243,2265.978,2.074619717497114e-09
244,2276.846,2.0676044451797203e-09
245,2287.714,2.0628981824505653e-09
246,2298.582,2.0605696756666165e-09
247,2309.45,2.0946392311979215e-09
248,2320.3179999999998,1.988490302260995e-09
249,2331.186,2.073682053024504e-09
250,2342.054,2.0923273376221937e-09
251,2352.922,2.044613507715086e-09
252,2363.79,2.035544376454591e-09
253,2374.658,2.0614411642601618e-09
254,2385.526,2.1279252596512115e-09
255,2396.394,2.090329847953481e-09
256,2407.262,2.0150294997289595e-09
257,2418.13,2.0097007614791266e-09
258,2428.998,2.1284211954813877e-09
259,2439.866,2.045048463184056e-09
260,2450.734,2.0002600371654093e-09
261,2461.602,2.006520208255341e-09
262,2472.47,2.0715049920012103e-09
263,2483.338,2.1246615221355183e-09
264,2494.206,2.057538111090376e-09
265,2505.074,2.0661119536130494e-09
266,2515.942,2.0182112091113955e-09
267,2526.81,1.8193559679876923e-09
268,2537.678,1.942170145701926e-09
269,2548.546,1.8836386235661104e-09
270,2559.4139999999998,2.0151019922060996e-09
271,2570.282,1.9075765939040076e-09
272,2581.15,1.9545547227919877e-09
273,2592.018,1.83738396170434e-09
274,2602.886,1.912349641708718e-09
275,2613.754,1.8877745119114887e-09
276,2624.622,1.922245878747841e-09
277,2635.49,2.0289063624264823e-09
278,2646.358,1.9998226972246435e-09
279,2657.226,2.0753359227578235e-09
280,2668.094,2.05829588645782e-09
281,2678.962,2.0496140875508197e-09
282,2689.83,1.995960794776802e-09
283,2700.698,2.0197554100518536e-09
284,2711.566,2.002483821726686e-09
285,2722.434,2.1302369808428293e-09
286,2731.1284,1.9888757246014546e-09
287,2736.5624,1.965071883822946e-09
288,2744.17,1.910188197809071e-09
289,2755.038,1.924459457670117e-09
290,2765.906,1.9491200604483884e-09
291,2776.774,2.061605027129981e-09
292,2787.642,2.0509198700530056e-09
293,2798.5099999999998,2.1405328672382338e-09
294,2809.378,2.150631753500904e-09
295,2820.246,2.1317276111895146e-09
296,2831.114,2.0758530006883356e-09
297,2841.982,2.0631698542276485e-09
298,2852.85,2.1596755087918735e-09
299,2863.718,2.232740703695696e-09
300,2874.586,2.424128177973769e-09
301,2885.454,2.468197047310793e-09
302,2896.322,2.3488430510806967e-09
303,2907.19,2.406386942123027e-09
304,2918.058,2.4400155676447843e-09
305,2928.926,2.3421258911082654e-09
306,2939.794,2.3743957743285294e-09
307,2950.662,2.291192569653299e-09
308,2961.5299999999997,2.285836365368884e-09
309,2972.398,2.382884321080489e-09
310,2983.266,2.1341458997564425e-09
311,2994.134,2.1929271997565385e-09
312,3005.002,2.2931354506183936e-09
313,3015.87,2.3631426512661685e-09
314,3026.738,2.2170939348465763e-09
315,3037.6059999999998,1.8285564521644831e-09
316,3048.474,1.9360791471433557e-09
317,3059.342,2.4059108798812994e-09
318,3070.21,2.5362206862212865e-09
319,3081.078,2.489166849444082e-09
320,3091.946,2.405064426249404e-09
321,3102.814,2.3324531087284077e-09
322,3113.682,2.5136962091034003e-09
323,3124.55,2.5658334755409115e-09
324,3135.418,2.579042763372844e-09
325,3146.286,2.602522351724981e-09
326,3162.588,2.789997853725296e-09
327,3184.324,2.741991768603787e-09
328,3206.06,2.728044071882609e-09
329,3227.796,2.774117083267126e-09
330,3249.532,2.814734958927918e-09
331,3271.268,2.859381468322879e-09
332,3293.004,2.8894990343448857e-09
333,3314.74,2.9273005527168513e-09
334,3336.476,2.9532019597512417e-09
335,3358.212,2.986710872297459e-09
336,3379.948,3.014698263442896e-09
337,3401.6839999999997,2.9995600883380537e-09
338,3423.42,3.0274847963558197e-09
339,3445.156,3.0763218239274037e-09
340,3466.892,2.989737865084696e-09
341,3488.628,3.082405625405735e-09
342,3510.364,3.003199946439078e-09
343,3532.1,3.203708357445671e-09
344,3553.836,3.3472416147320964e-09
345,3575.572,3.362186978389639e-09
346,3597.308,3.3651503126678825e-09
347,3619.044,3.370897479233356e-09
348,3640.7799999999997,3.337126974532444e-09
349,3662.516,3.210377496763362e-09
350,3684.252,3.293245118149174e-09
351,3705.988,3.3617689992774434e-09
352,3727.724,3.4409161672045487e-09
353,3749.46,3.4914602861930238e-09
354,3771.196,3.5271147826136004e-09
355,3792.932,3.621702920982099e-09
356,3814.668,3.712675325882513e-09
357,3836.404,3.6615165683734653e-09
358,3858.14,3.78857494579574e-09
359,3879.8759999999997,3.559606040369818e-09
360,3901.612,3.5757221587058964e-09
361,3914.46601832,3.909288832252432e-09
362,3915.444247,3.895944891058166e-09
363,3916.42280172,3.88259650237767e-09
364,3917.4010304,3.869252561183404e-09
365,3918.3793677599997,3.85590713749373e-09
366,3919.3579224799996,3.8425587488132324e-09
367,3920.33615116,3.829214807618961e-09
368,3921.31470588,3.798791185867163e-09
369,3922.29293456,3.750374935203989e-09
370,3923.2711632399996,3.7019586845408376e-09
371,3924.2497179599995,3.6535262969204433e-09
372,3925.22805532,3.605104667271514e-09
373,3926.20650136,3.5566776586368523e-09
374,3927.1848387200002,3.508256028987923e-09
375,3928.1630674,3.49382777645295e-09
376,3929.1416221199997,3.495737648062566e-09
377,3930.1198508,3.497646883331131e-09
378,3931.09840552,3.4995567549407466e-09
379,3932.0766342,3.501465990209311e-09
380,3933.05497156,3.503375437591559e-09
381,3934.0334175999997,3.50528509708749e-09
382,3935.01175496,3.5717785940197677e-09
383,3935.99030968,3.649461101976278e-09
384,3936.9685383600004,3.7271177272669215e-09
385,3937.94676704,3.804774352557493e-09
386,3938.92532176,3.882456860514003e-09
387,3939.90355044,3.96011348580461e-09
388,3940.88210516,4.03509710638547e-09
389,3941.8604425199997,3.964255877444369e-09
390,3942.8386712,3.893422518002103e-09
391,3943.81722592,3.822565550063231e-09
392,3944.7954546,3.751732190620999e-09
393,3945.77400932,3.680875222682126e-09
394,3946.7522379999996,3.6100418632399263e-09
395,3947.73046668,3.5566658892089705e-09
396,3948.7090214,3.5874058599766895e-09
397,3949.6873587600003,3.6181390026745034e-09
398,3950.6658048,3.648875559407256e-09
399,3951.64414216,3.6796087021050554e-09
400,3952.62237084,3.710338430767902e-09
401,3953.6009255599997,3.7410784015356215e-09
402,3954.57915424,3.76049150150287e-09
403,3955.55770896,3.755213023715354e-09
404,3956.5359376399997,3.749936304638785e-09
405,3957.514275,3.744658999325231e-09
406,3958.49282972,3.7393805215377145e-09
407,3959.4710584,3.734103802461144e-09
408,3960.44961312,3.728825324673628e-09
409,3961.4278418,3.73579701684539e-09
410,3962.40607048,3.758042054639182e-09
411,3963.3846252,3.780294506621771e-09
412,3964.36285388,3.802539544415563e-09
413,3965.3414086000002,3.824791996398162e-09
414,3966.3197459599996,3.847039505588206e-09
415,3967.29797464,3.869284543382009e-09
416,3968.27652936,3.908447653854175e-09
417,3969.25475804,3.960669867929083e-09
418,3970.23331276,4.0129094874747354e-09
419,3971.21154144,4.065131701549644e-09
420,3972.1898788,4.117359717448125e-09
421,3973.16832484,4.169593535170205e-09
422,3974.1466622000003,4.221821551068711e-09
423,3975.12521692,4.235914765814872e-09
424,3976.1034455999998,4.231328722971152e-09
425,3977.0816742800002,4.226742680127428e-09
426,3978.060229,4.222155108772593e-09
427,3979.03845768,4.217569065928871e-09
428,3980.0170124,4.212981494574036e-09
429,3980.99534976,4.2083949422266104e-09
430,3981.97357844,4.203549580546921e-09
431,3982.95213316,4.1986237222337075e-09
432,3983.9303618400004,4.193699505143829e-09
433,3984.9089165600003,4.1887736468306154e-09
434,3985.88714524,4.183849429740742e-09
435,3986.8654826,4.178924665576419e-09
436,3987.84392864,4.173999354337652e-09
437,3988.8222659999997,4.169317489154643e-09
438,3989.8007120400002,4.164677755308578e-09
439,3990.7790494,4.160038536816715e-09
440,3991.75727808,4.155399833679049e-09
441,3992.7358328,4.1507595844787885e-09
442,3993.7140614799996,4.146120881341124e-09
443,3994.6926162,4.141480632140862e-09
444,3995.67084488,4.126743292646396e-09
445,3996.6491822400003,4.1111593619972265e-09
446,3997.62773696,4.095571969021768e-09
447,3998.60596564,4.079989769535757e-09
448,3999.5845203599997,4.064402376560299e-09
449,4000.5627490399997,4.04882017707428e-09
450,4001.5409777200002,4.033237977588254e-09
451,4002.51953244,4.010507166961284e-09
452,4003.4978698,3.987656859071203e-09
453,4004.47631584,3.964804012822096e-09
454,4005.4546532,3.941953704932015e-09
455,4006.43288188,3.919105935400948e-09
456,4007.4114366,3.896250550792826e-09
457,4008.38966528,3.876382471618214e-09
458,4009.36822,3.948311169119805e-09
459,4010.34644868,4.020215901040273e-09
460,4011.3247860399997,4.092128621487771e-09
461,4012.30334076,4.164057318989396e-09
462,4013.2815694399997,4.23596205090983e-09
463,4014.2601241599996,4.3078907484114215e-09
464,4015.23835284,4.378516446823265e-09
465,4016.21658152,4.43167342450095e-09
466,4017.19513624,4.4848481192026295e-09
467,4018.1734736,4.538011002554971e-09
468,4019.15191964,4.591179791581993e-09
469,4020.130257,4.644342674934334e-09
470,4021.10848568,4.697499652612018e-09
471,4022.0870404,4.735489829983301e-09
472,4023.06526908,4.625657620821174e-09
473,4024.0438237999997,4.5157888049900285e-09
474,4025.02205248,4.405956595827799e-09
475,4026.0003898399996,4.2961121844427e-09
476,4026.97883588,4.186255570834475e-09
477,4027.95717324,4.076411159449325e-09
478,4028.93572796,3.98015628020111e-09
479,4029.91395664,3.998460930611223e-09
480,4030.89218532,4.016765581021336e-09
481,4031.8707400400003,4.035076332303718e-09
482,4032.84896872,4.053380982713822e-09
483,4033.82752344,4.071691733996195e-09
484,4034.8058608,4.0899984180304e-09
485,4035.7840894799997,4.111501611933347e-09
486,4036.7626441999996,4.159682455060029e-09
487,4037.74087288,4.2078472450404265e-09
488,4038.7194276,4.256028088167109e-09
489,4039.69765628,4.304192878147484e-09
490,4040.67599364,4.352363019176621e-09
491,4041.6544396799995,4.4005385112545195e-09
492,4042.63277704,4.448433437234056e-09
493,4043.6113317599998,4.493759164820745e-09
494,4044.5895604400002,4.539069790543538e-09
495,4045.56778912,4.5843804162662896e-09
496,4046.5463438399997,4.629706143852979e-09
497,4047.5245725199998,4.675016769575751e-09
498,4048.5031272399997,4.720342497162441e-09
499,4049.4814646,4.759177303756629e-09
500,4050.45969328,4.716691288794156e-09
501,4051.438248,4.674191113400083e-09
502,4052.41647668,4.63170509843761e-09
503,4053.3950314,4.589204923043535e-09
504,4054.37326008,4.546718908081063e-09
505,4055.3515974399998,4.50422817297473e-09
506,4056.33004348,4.462623065136224e-09
507,4057.30838084,4.442871760219643e-09
508,4058.28693556,4.423116067099355e-09
509,4059.26516424,4.403366956284636e-09
510,4060.2433929199997,4.383617845469927e-09
511,4061.2219476399996,4.363862152349639e-09
512,4062.20017632,4.344113041534911e-09
513,4063.17873104,4.324357348414623e-09
514,4064.1570684,4.3985182117713216e-09
515,4065.13529708,4.473365680141892e-09
516,4066.1138518,4.548238094896757e-09
517,4067.0920804800003,4.623085563267362e-09
518,4068.0706352,4.697957978022227e-09
519,4069.04886388,4.772805446392797e-09
520,4070.02720124,4.847661230224788e-09
521,4071.0056472799997,4.674254269184252e-09
522,4071.98398464,4.4833142589201185e-09
523,4072.96253936,4.292331826969708e-09
524,4073.94076804,4.101413027548803e-09
525,4074.91899672,3.9104942281278965e-09
526,4075.89755144,3.719511796177486e-09
527,4076.87578012,3.5285929967565804e-09
528,4077.85433484,3.744591561531206e-09
529,4078.8326721999997,4.0249164050646005e-09
530,4079.81090088,4.305210108313405e-09
531,4080.7894556,4.58559723241637e-09
532,4081.76768428,4.865890935665045e-09
533,4082.746239,5.146278059768009e-09
