,rest_wave,flux
0,98.8988,3.394457714810926e-14
1,102.1592,3.8363064648350917e-14
2,104.33279999999999,4.523207345406707e-14
3,106.5064,5.5130576833910206e-14
4,108.67999999999999,6.645014106518324e-14
5,110.8536,6.016736479596052e-14
6,113.0272,7.620873669958976e-14
7,115.2008,9.224365628526911e-14
8,117.3744,1.1073856168420604e-13
9,119.548,1.1210343969278961e-13
10,123.8952,1.4076597521865363e-13
11,128.2424,1.7671087219857116e-13
12,131.5028,2.7762408680331523e-13
13,135.85,3.068037534464029e-13
14,138.0236,3.1034248711226387e-13
15,139.1104,3.051013356623617e-13
16,142.3708,2.1503807564466164e-13
17,143.45759999999999,2.1758953308120911e-13
18,145.6312,2.2087720597670386e-13
19,148.8916,2.88412991690984e-13
20,152.152,4.4614369403752263e-13
21,155.4124,4.897709981724418e-13
22,159.7596,4.705417044028182e-13
23,164.1068,4.783383684868106e-13
24,168.454,5.54598770230594e-13
25,172.8012,6.569266824580778e-13
26,176.0616,5.516488930900715e-13
27,180.40879999999999,4.4479036827013844e-13
28,184.756,4.33837910651549e-13
29,188.0164,7.438129662744531e-13
30,192.3636,8.865009305248229e-13
31,195.624,8.354336437878763e-13
32,197.7976,6.689837153629981e-13
33,202.1448,9.402953436650434e-13
34,207.5788,7.153155759888316e-13
35,210.8392,6.703861568935019e-13
36,215.1864,1.3513215643511351e-12
37,219.5336,1.2048634414362853e-12
38,222.794,1.054857048601075e-12
39,228.228,1.2811434982109185e-12
40,234.7488,2.085357143221459e-12
41,239.096,1.7912211107864735e-12
42,242.3564,2.0633103217017302e-12
43,246.7036,2.120697318108429e-12
44,249.964,3.973188916329982e-12
45,254.31119999999999,4.278654806966366e-12
46,260.832,6.016361672783933e-12
47,267.3528,3.996628456826667e-11
48,273.8736,6.125647171952454e-11
49,279.3076,1.0591381852132025e-10
50,282.568,2.771102419175021e-11
51,286.91519999999997,4.3590733142825765e-11
52,292.3492,5.319590350209884e-11
53,297.7832,1.4092446294052123e-10
54,303.2172,4.714326005352627e-11
55,308.6512,7.145203852115934e-11
56,315.17199999999997,3.946213965997092e-11
57,321.6928,5.0122541297395984e-11
58,327.1268,1.0276679698140081e-10
59,334.7344,1.2916795298517522e-10
60,345.6024,1.1325979434155362e-10
61,356.4704,2.047767927551379e-10
62,367.3384,1.1571146719845126e-10
63,378.2064,1.6925857548741494e-10
64,387.9876,3.831672716151661e-11
65,397.7688,1.6427808537065172e-10
66,407.55,1.4585418553109165e-10
67,418.418,2.2080654324377332e-10
68,429.286,1.5036600928832612e-10
69,440.154,1.980808024251457e-10
70,449.9352,2.297974112969651e-10
71,458.6296,2.5856868054363404e-10
72,467.324,2.5888031443518784e-10
73,479.2788,1.8796747389171004e-10
74,490.1468,3.2834901273726704e-10
75,499.928,2.3784915781711073e-10
76,510.796,4.258374258569134e-10
77,521.664,2.892864439235049e-10
78,532.532,2.7658151367672424e-10
79,543.4,4.6464549383112497e-10
80,549.9208,4.2331606944994455e-10
81,556.4416,4.060898337014735e-10
82,565.136,5.082958171754134e-10
83,576.004,4.998333500367805e-10
84,586.872,1.5237446406279633e-10
85,597.74,2.1989723365140777e-10
86,608.608,5.432252705691643e-10
87,619.476,5.00548833000274e-10
88,630.3439999999999,5.131031311279525e-10
89,641.212,6.567227113413175e-10
90,652.08,4.5789346365785746e-10
91,662.948,8.160488220731214e-10
92,673.816,5.627311232418064e-10
93,684.684,7.056217903935143e-10
94,695.552,5.576070306515891e-10
95,706.42,6.646319421827213e-10
96,715.1144,6.232189294236348e-10
97,722.722,6.345168509416364e-10
98,733.59,6.97558843278044e-10
99,744.458,7.050960790947864e-10
100,755.326,6.812135745654991e-10
101,766.194,7.291692214136871e-10
102,778.1487999999999,7.650723270322403e-10
103,789.0168,7.680419428184196e-10
104,798.798,7.484470558946426e-10
105,809.6659999999999,7.29711488946733e-10
106,820.534,4.454613294933981e-10
107,831.402,9.002346428334792e-10
108,842.27,7.188750635382196e-10
109,853.138,2.74828602438211e-10
110,864.006,8.552541010809702e-10
111,874.874,8.249096274339186e-10
112,885.742,8.200219252593113e-10
113,896.61,8.32103981097543e-10
114,907.478,6.978901438701829e-10
115,918.346,8.403703264325733e-10
116,929.2139999999999,8.024268166446618e-10
117,940.082,7.78755108194586e-10
118,950.95,8.416599694884755e-10
119,961.818,8.727101936959228e-10
120,972.686,8.912158110800356e-10
121,983.554,9.556978971597203e-10
122,994.422,2.7498248909137178e-09
123,1005.29,2.717013558832268e-09
124,1016.158,3.254992236412099e-09
125,1027.026,3.4232890920087212e-09
126,1037.894,2.646557351326124e-09
127,1048.762,3.3118418072894346e-09
128,1059.6299999999999,2.1393900504483447e-09
129,1070.498,3.101770061749088e-09
130,1081.366,2.7064524417612094e-09
131,1092.234,3.6707574642754006e-09
132,1103.102,3.302966358144021e-09
133,1113.97,2.2218721479978653e-09
134,1124.838,2.7767761328054425e-09
135,1135.706,3.9614105783994704e-09
136,1146.574,3.9714797259885966e-09
137,1157.442,3.911451556072955e-09
138,1168.31,4.009582578815086e-09
139,1179.1779999999999,3.4793230976497178e-09
140,1190.046,4.074257136177719e-09
141,1200.914,4.0614905474805625e-09
142,1211.782,3.7642232957461375e-09
143,1222.65,3.2176095198573675e-09
144,1233.518,4.0464535265128915e-09
145,1244.386,3.5140649456024685e-09
146,1255.254,3.9348509135292815e-09
147,1266.122,3.959643296894677e-09
148,1276.99,2.8764503450537383e-09
149,1287.858,3.477242850923497e-09
150,1298.7259999999999,3.555990628996902e-09
151,1309.594,3.25557227962598e-09
152,1320.462,2.138463198599289e-09
153,1331.33,3.050998584549663e-09
154,1342.198,3.1945631340742503e-09
155,1353.066,4.5041663761496246e-09
156,1363.934,4.164414270942331e-09
157,1374.802,3.956267566606656e-09
158,1385.67,4.387270943391035e-09
159,1396.538,4.485967798327694e-09
160,1407.406,4.112639097743227e-09
161,1418.274,4.2172492022283e-09
162,1429.142,4.472479768584592e-09
163,1440.01,4.3783125152978955e-09
164,1450.878,4.206807543361485e-09
165,1461.746,4.670367853252236e-09
166,1472.614,4.421082342120297e-09
167,1483.482,4.2257154390231805e-09
168,1494.35,4.394295154417383e-09
169,1505.218,4.5540934637735455e-09
170,1516.086,4.810881197889953e-09
171,1526.954,4.713868289232937e-09
172,1537.822,4.509158654435823e-09
173,1548.69,4.365952376852509e-09
174,1559.558,4.5029846478164805e-09
175,1567.1656,4.647975405322683e-09
176,1572.5996,4.742117565923648e-09
177,1581.294,4.6241333367524155e-09
178,1592.162,4.536095707248516e-09
179,1603.03,4.575706689672477e-09
180,1613.898,4.576445883412491e-09
181,1624.766,4.671751959479611e-09
182,1635.634,4.508543789122568e-09
183,1643.2416,4.3232864727965645e-09
184,1648.6756,4.456071266876617e-09
185,1657.37,4.302832496907567e-09
186,1668.238,4.20260314458129e-09
187,1679.106,3.571941265401762e-09
188,1689.974,4.576130081482124e-09
189,1700.8419999999999,4.237903049167161e-09
190,1711.71,4.151525615339338e-09
191,1722.578,4.3748804054024855e-09
192,1733.446,4.6129622561824365e-09
193,1744.314,4.613790307124572e-09
194,1755.182,4.59102508298264e-09
195,1766.05,4.498400311708768e-09
196,1776.918,4.4376598655516685e-09
197,1787.786,4.611078037153473e-09
198,1798.654,4.4327110093140955e-09
199,1809.522,4.484065279127459e-09
200,1817.1296,4.203703869428678e-09
201,1822.5636,4.452000973870757e-09
202,1831.258,4.7923992999246545e-09
203,1842.126,4.608768785651352e-09
204,1852.994,4.575225397732715e-09
205,1863.862,4.461276624621497e-09
206,1874.73,4.35842350727912e-09
207,1885.598,4.6671799034402185e-09
208,1896.466,4.496604029702851e-09
209,1907.334,4.779514190233809e-09
210,1918.202,4.553014106566375e-09
211,1929.07,4.552150491227027e-09
212,1939.9379999999999,4.685436415226868e-09
213,1950.806,4.9045213470108815e-09
214,1961.674,4.792632373703324e-09
215,1972.542,4.739570572844689e-09
216,1983.41,4.702915906803272e-09
217,1994.278,4.676706325881669e-09
218,2005.146,4.471611158010361e-09
219,2016.014,4.484970781180531e-09
220,2026.882,4.56174146857666e-09
221,2037.75,4.710075972401111e-09
222,2048.618,4.440546132398406e-09
223,2059.486,4.330897005927225e-09
224,2070.354,4.657512144974566e-09
225,2081.2219999999998,4.563465761563121e-09
226,2092.09,4.576526320273012e-09
227,2102.958,4.637012611812627e-09
228,2113.826,4.767839468337071e-09
229,2124.694,4.559055233206693e-09
230,2137.7356,4.840241205229235e-09
231,2147.5168,4.844169314215429e-09
232,2156.2112,4.739077446104352e-09
233,2168.166,4.687593586379048e-09
234,2179.034,4.6483461714862505e-09
235,2189.902,4.671268180055052e-09
236,2200.77,4.71779494750005e-09
237,2211.638,4.593874352424765e-09
238,2222.506,4.740567570568445e-09
239,2233.374,4.727079462313031e-09
240,2244.242,4.729206560988405e-09
241,2254.0232,4.887634565995873e-09
242,2258.3704,4.767363855794479e-09
243,2265.978,4.745851231091556e-09
244,2276.846,4.758603964391811e-09
245,2287.714,4.778792920738797e-09
246,2298.582,4.749759948752004e-09
247,2309.45,4.8327214626510515e-09
248,2320.3179999999998,4.645299917440208e-09
249,2331.186,4.774660429391136e-09
250,2342.054,4.819945341164096e-09
251,2352.922,4.73312002615596e-09
252,2363.79,4.710127837432879e-09
253,2374.658,4.72975769683144e-09
254,2385.526,4.848283102982425e-09
255,2396.394,4.7731700301990866e-09
256,2407.262,4.638127527160209e-09
257,2418.13,4.606267366858701e-09
258,2428.998,4.808879264375312e-09
259,2439.866,4.657725273056213e-09
260,2450.734,4.581329917102529e-09
261,2461.602,4.602005141906004e-09
262,2472.47,4.7124577552944975e-09
263,2483.338,4.794870422696662e-09
264,2494.206,4.669360610728025e-09
265,2505.074,4.662403857841375e-09
266,2515.942,4.559675283044134e-09
267,2526.81,4.164167663812479e-09
268,2537.678,4.43153370232984e-09
269,2548.546,4.344017025858446e-09
270,2559.4139999999998,4.542480463905498e-09
271,2570.282,4.368601651494055e-09
272,2581.15,4.4366253849277915e-09
273,2592.018,4.250958421157803e-09
274,2602.886,4.3861575104104925e-09
275,2613.754,4.32486997254092e-09
276,2624.622,4.3801753493819826e-09
277,2635.49,4.533961960607113e-09
278,2646.358,4.464553260258091e-09
279,2657.226,4.595047826951507e-09
280,2668.094,4.55413928416328e-09
281,2678.962,4.531493612431417e-09
282,2689.83,4.445476193801227e-09
283,2700.698,4.515893423103124e-09
284,2711.566,4.4723818096791865e-09
285,2722.434,4.670739878481279e-09
286,2731.1284,4.455628278893359e-09
287,2736.5624,4.445390087193395e-09
288,2744.17,4.337467832759371e-09
289,2755.038,4.344015209989577e-09
290,2765.906,4.369043513488788e-09
291,2776.774,4.541402730654982e-09
292,2787.642,4.525841802692761e-09
293,2798.5099999999998,4.671571669127015e-09
294,2809.378,4.686090199611986e-09
295,2820.246,4.657677854834838e-09
296,2831.114,4.559005274814195e-09
297,2841.982,4.544116866521753e-09
298,2852.85,4.670135960790407e-09
299,2863.718,4.763585630802856e-09
300,2874.586,5.052096660306933e-09
301,2885.454,5.09500963555117e-09
302,2896.322,4.919906799175225e-09
303,2907.19,5.006576041591914e-09
304,2918.058,5.043114468434224e-09
305,2928.926,4.906336739321773e-09
306,2939.794,4.94683051518258e-09
307,2950.662,4.825299914348893e-09
308,2961.5299999999997,4.818580812424553e-09
309,2972.398,4.970047267662036e-09
310,2983.266,4.587926956570229e-09
311,2994.134,4.653842724023311e-09
312,3005.002,4.800419363102622e-09
313,3015.87,4.914807895520638e-09
314,3026.738,4.724862469134335e-09
315,3037.6059999999998,4.146024579868272e-09
316,3048.474,4.32283794855236e-09
317,3059.342,4.97335903434034e-09
318,3070.21,5.127355338469179e-09
319,3081.078,5.038392813694374e-09
320,3091.946,4.921737583087766e-09
321,3102.814,4.841513457500576e-09
322,3113.682,5.078986432048907e-09
323,3124.55,5.12995483461751e-09
324,3135.418,5.152765543101901e-09
325,3146.286,5.178379774858219e-09
326,3162.588,5.430755904477898e-09
327,3184.324,5.353524100471049e-09
328,3206.06,5.330610416282939e-09
329,3227.796,5.389621116756977e-09
330,3249.532,5.4374544765335695e-09
331,3271.268,5.500474118742217e-09
332,3293.004,5.529491531178569e-09
333,3314.74,5.562298928653852e-09
334,3336.476,5.575136207869128e-09
335,3358.212,5.6171107880535066e-09
336,3379.948,5.634143878115171e-09
337,3401.6839999999997,5.6070422590951945e-09
338,3423.42,5.635372883639392e-09
339,3445.156,5.683676746882137e-09
340,3466.892,5.559200854359008e-09
341,3488.628,5.683791665974848e-09
342,3510.364,5.57568653648227e-09
343,3532.1,5.810579386325289e-09
344,3553.836,5.9789109721934054e-09
345,3575.572,5.990223237974138e-09
346,3597.308,5.990909401356337e-09
347,3619.044,5.986029549732389e-09
348,3640.7799999999997,5.933443441669612e-09
349,3662.516,5.7778969223322585e-09
350,3684.252,5.872382312678475e-09
351,3705.988,5.959560721358408e-09
352,3727.724,6.043312759501094e-09
353,3749.46,6.10399257207127e-09
354,3771.196,6.137992573636975e-09
355,3792.932,6.244030221864764e-09
356,3814.668,6.350363912421255e-09
357,3836.404,6.287442265768208e-09
358,3858.14,6.432839151921978e-09
359,3879.8759999999997,6.1568174393390165e-09
360,3901.612,6.159490808228928e-09
361,3914.46601832,6.413771255411853e-09
362,3915.444247,6.41553872878724e-09
363,3916.42280172,6.417306791254964e-09
364,3917.4010304,6.41907426463035e-09
365,3918.3793677599997,6.420841934369849e-09
366,3919.3579224799996,6.422609996837572e-09
367,3920.33615116,6.42437747021296e-09
368,3921.31470588,6.389275265740335e-09
369,3922.29293456,6.315311684263732e-09
370,3923.2711632399996,6.241348102787163e-09
371,3924.2497179599995,6.167359869522498e-09
372,3925.22805532,6.093388070783184e-09
373,3926.20650136,6.019408054781194e-09
374,3927.1848387200002,5.945436256041881e-09
375,3928.1630674,5.9337259614908695e-09
376,3929.1416221199997,5.9519458981957175e-09
377,3930.1198508,5.970159764286392e-09
378,3931.09840552,5.98837970099124e-09
379,3932.0766342,6.006593567081906e-09
380,3933.05497156,6.02480945671063e-09
381,3934.0334175999997,6.043027369877411e-09
382,3935.01175496,6.125863561858198e-09
383,3935.99030968,6.2198986681732395e-09
384,3936.9685383600004,6.313902443377836e-09
385,3937.94676704,6.407906218582344e-09
386,3938.92532176,6.501941324897386e-09
387,3939.90355044,6.5959451001019374e-09
388,3940.88210516,6.686665746520515e-09
389,3941.8604425199997,6.598301559167937e-09
390,3942.8386712,6.509947187876993e-09
391,3943.81722592,6.421563368401023e-09
392,3944.7954546,6.3332089971101204e-09
393,3945.77400932,6.244825177634151e-09
394,3946.7522379999996,6.156470806343289e-09
395,3947.73046668,6.087682548167448e-09
396,3948.7090214,6.113167853308134e-09
397,3949.6873587600003,6.138647497563637e-09
398,3950.6658048,6.164129972261719e-09
399,3951.64414216,6.1896096165172094e-09
400,3952.62237084,6.215086430330108e-09
401,3953.6009255599997,6.2405717354707945e-09
402,3954.57915424,6.2562286242052395e-09
403,3955.55770896,6.250459173555261e-09
404,3956.5359376399997,6.244691645201149e-09
405,3957.514275,6.2389234760817435e-09
406,3958.49282972,6.233154025431765e-09
407,3959.4710584,6.22738649707765e-09
408,3960.44961312,6.221617046427672e-09
409,3961.4278418,6.239460832436442e-09
410,3962.40607048,6.286747111642349e-09
411,3963.3846252,6.334049151190169e-09
412,3964.36285388,6.3813354303960755e-09
413,3965.3414086000002,6.428637469943918e-09
414,3966.3197459599996,6.4759290025971e-09
415,3967.29797464,6.523215281803028e-09
416,3968.27652936,6.579867476329986e-09
417,3969.25475804,6.64372858284011e-09
418,3970.23331276,6.707610974020768e-09
419,3971.21154144,6.771472080530892e-09
420,3972.1898788,6.835340281931185e-09
421,3973.16832484,6.899215578221674e-09
422,3974.1466622000003,6.9630837796219964e-09
423,3975.12521692,6.97851021908078e-09
424,3976.1034455999998,6.970209920889155e-09
425,3977.0816742800002,6.961909622697522e-09
426,3978.060229,6.953606558047215e-09
427,3979.03845768,6.945306259855587e-09
428,3980.0170124,6.9370031952052795e-09
429,3980.99534976,6.928701974860759e-09
430,3981.97357844,6.921730344661574e-09
431,3982.95213316,6.915160555776533e-09
432,3983.9303618400004,6.908592955848247e-09
433,3984.9089165600003,6.9020231669632065e-09
434,3985.88714524,6.895455567034927e-09
435,3986.8654826,6.888887237454389e-09
436,3987.84392864,6.882318178221604e-09
437,3988.8222659999997,6.867983468506727e-09
438,3989.8007120400002,6.852283442245828e-09
439,3990.7790494,6.836585159851013e-09
440,3991.75727808,6.820888621322269e-09
441,3992.7358328,6.805186851195306e-09
442,3993.7140614799996,6.78949031266657e-09
443,3994.6926162,6.7737885425396e-09
444,3995.67084488,6.761457828543254e-09
445,3996.6491822400003,6.749407363475203e-09
446,3997.62773696,6.737354221120983e-09
447,3998.60596564,6.725305094696029e-09
448,3999.5845203599997,6.713251952341809e-09
449,4000.5627490399997,6.701202825916848e-09
450,4001.5409777200002,6.6891536994918825e-09
451,4002.51953244,6.66745467827599e-09
452,4003.4978698,6.645592299912593e-09
453,4004.47631584,6.623727492935731e-09
454,4005.4546532,6.6018651145723335e-09
455,4006.43288188,6.580005164822392e-09
456,4007.4114366,6.558137929232074e-09
457,4008.38966528,6.539935347568484e-09
458,4009.36822,6.634409152667605e-09
459,4010.34644868,6.728851480488273e-09
460,4011.3247860399997,6.823304300735076e-09
461,4012.30334076,6.917778105834242e-09
462,4013.2815694399997,7.012220433654865e-09
463,4014.2601241599996,7.106694238753986e-09
464,4015.23835284,7.19966412631307e-09
465,4016.21658152,7.272523791931914e-09
466,4017.19513624,7.34540774140775e-09
467,4018.1734736,7.41827550164558e-09
468,4019.15191964,7.491151356502429e-09
469,4020.130257,7.56401911674026e-09
470,4021.10848568,7.636878782359103e-09
471,4022.0870404,7.690808641990382e-09
472,4023.06526908,7.56021688246124e-09
473,4024.0438237999997,7.429581597181737e-09
474,4025.02205248,7.298989837652474e-09
475,4026.0003898399996,7.168383569539918e-09
476,4026.97883588,7.0377627928437664e-09
477,4027.95717324,6.907156524731151e-09
478,4028.93572796,6.791554102910949e-09
479,4029.91395664,6.8024544020761526e-09
480,4030.89218532,6.813354701241356e-09
481,4031.8707400400003,6.8242586334359474e-09
482,4032.84896872,6.835158932601146e-09
483,4033.82752344,6.846062864795733e-09
484,4034.8058608,6.856964374970735e-09
485,4035.7840894799997,6.87534317192833e-09
486,4036.7626441999996,6.9560862094582815e-09
487,4037.74087288,7.0368023445990535e-09
488,4038.7194276,7.1175453821290055e-09
489,4039.69765628,7.19826151726974e-09
490,4040.67599364,7.2789866198735346e-09
491,4041.6544396799995,7.359720689940388e-09
492,4042.63277704,7.438514942076458e-09
493,4043.6113317599998,7.499227094000942e-09
494,4044.5895604400002,7.559919017531883e-09
495,4045.56778912,7.620610941062769e-09
496,4046.5463438399997,7.681323092987252e-09
497,4047.5245725199998,7.742015016518165e-09
498,4048.5031272399997,7.80272716844265e-09
499,4049.4814646,7.854885090001474e-09
500,4050.45969328,7.79987485362807e-09
501,4051.438248,7.744846282546405e-09
502,4052.41647668,7.689836046173e-09
503,4053.3950314,7.634807475091335e-09
504,4054.37326008,7.579797238717933e-09
505,4055.3515974399998,7.524780890775117e-09
506,4056.33004348,7.471674087204117e-09
507,4057.30838084,7.465583500117001e-09
508,4058.28693556,7.459491559866792e-09
509,4059.26516424,7.453401649361225e-09
510,4060.2433929199997,7.447311738855661e-09
511,4061.2219476399996,7.441219798605453e-09
512,4062.20017632,7.435129888099882e-09
513,4063.17873104,7.429037947849674e-09
514,4064.1570684,7.542325804751523e-09
515,4065.13529708,7.656484341677793e-09
516,4066.1138518,7.770680927222069e-09
517,4067.0920804800003,7.884839464148393e-09
518,4068.0706352,7.99903604969267e-09
519,4069.04886388,8.113194586618941e-09
520,4070.02720124,8.227365806417863e-09
521,4071.0056472799997,7.971448137089834e-09
522,4071.98398464,7.689393388813623e-09
523,4072.96253936,7.407275975630105e-09
524,4073.94076804,7.125252559807678e-09
525,4074.91899672,6.843229143985252e-09
526,4075.89755144,6.5611117308017344e-09
527,4076.87578012,6.279088314979308e-09
528,4077.85433484,6.5911591232686795e-09
529,4078.8326721999997,6.99714639064909e-09
530,4079.81090088,7.403088558355541e-09
531,4080.7894556,7.809166025084436e-09
532,4081.76768428,8.2151081927907e-09
533,4082.746239,8.621185659519594e-09
534,4083.7244676799996,9.027127827225669e-09
535,4084.70280504,9.12274833548234e-09
536,4085.68125108,9.131278371530626e-09
